Hole,,MnPS3,,FePS3,,NiPS3,,CrPS4,,
Wavelength (nm),%T,Wavelength (nm),%T,Wavelength (nm),%T,Wavelength (nm),%T,Wavelength (nm),%T,
1800,2.42609334,1800,2.052487135,1800,1.599767804,1800,0.9875524044,1800,1.113886356,
1797,2.421885252,1797,1.737216115,1797,2.054200172,1797,1.223353148,1797,1.2366395,
1794,2.383942366,1794,1.812996864,1794,1.788313627,1794,1.036108494,1794,0.9558485746,
1791,2.05664134,1791,1.826493025,1791,1.928247094,1791,1.073349118,1791,1.000476599,
1788,2.364507437,1788,1.72715044,1788,1.742793441,1788,1.032137632,1788,1.032822132,
1785,2.261513948,1785,1.849136472,1785,2.016201258,1785,1.045265436,1785,0.9828259349,
1782,2.27471137,1782,1.787974119,1782,1.775397778,1782,1.128399611,1782,1.011272192,
1779,2.483733654,1779,1.978345156,1779,1.780183434,1779,0.9393785,1779,1.142958879,
1776,2.430024624,1776,1.839740753,1776,1.521800876,1776,1.076200366,1776,0.950571239,
1773,2.463771105,1773,1.812963605,1773,1.880370617,1773,0.8825566769,1773,0.8439298868,
1770,2.293261528,1770,1.696837544,1770,1.818211317,1770,1.046873212,1770,0.9344398975,
1767,2.129778147,1767,1.661783457,1767,1.51905632,1767,1.088772535,1767,0.8334698081,
1764,2.056442976,1764,1.692738056,1764,1.725844502,1764,0.86365062,1764,0.8873503804,
1761,2.13703227,1761,1.671957731,1761,1.594211578,1761,0.8884890676,1761,0.8196307421,
1758,2.27976656,1758,1.714016914,1758,1.685143948,1758,1.000820398,1758,1.1637429,
1755,2.355205059,1755,1.742880583,1755,1.760443687,1755,1.061112523,1755,0.87497437,
1752,2.179115534,1752,1.79389286,1752,1.908539057,1752,0.9391233325,1752,0.9846041799,
1749,2.171323061,1749,1.683352113,1749,1.739416122,1749,0.900868237,1749,1.014851451,
1746,2.204842806,1746,1.754005671,1746,1.751323223,1746,0.9074324965,1746,0.8712884188,
1743,2.142354488,1743,1.671161652,1743,1.723770857,1743,0.9317150116,1743,0.8473081589,
1740,2.355958223,1740,1.619822025,1740,1.725246429,1740,0.9658107758,1740,0.7976611853,
1737,2.143219471,1737,1.64481473,1737,1.597841978,1737,0.8465778232,1737,1.094443679,
1734,2.036587238,1734,1.654662371,1734,1.623605371,1734,0.8978216648,1734,0.8438279629,
1731,1.890836239,1731,1.446933746,1731,1.468984723,1731,0.9229948521,1731,0.8781086802,
1728,1.913348556,1728,1.543646812,1728,1.5833745,1728,0.9387732744,1728,0.7868589163,
1725,1.833916306,1725,1.474371552,1725,1.594510913,1725,0.9108376503,1725,0.8922952414,
1722,1.996506214,1722,1.724150181,1722,1.72330904,1722,0.9086575508,1722,0.9878742695,
1719,2.150901318,1719,1.582934737,1719,1.676908731,1719,0.8440345526,1719,0.9084552526,
1716,2.093538761,1716,1.728172541,1716,1.640169144,1716,1.063638806,1716,0.8765541911,
1713,2.17565608,1713,1.617277026,1713,1.75654757,1713,0.8073048592,1713,0.997341156,
1710,2.196827888,1710,1.64487505,1710,1.771623492,1710,0.8888121843,1710,0.8475304842,
1707,2.271375895,1707,1.755861998,1707,1.695617437,1707,0.9483212829,1707,1.0372504,
1704,2.24463129,1704,1.816881657,1704,1.72973299,1704,0.9194412231,1704,0.957444191,
1701,2.220412731,1701,1.678539276,1701,1.791981578,1701,0.8943794966,1701,0.9873615503,
1698,2.250321627,1698,1.67752099,1698,1.932795286,1698,0.8548817635,1698,0.9507112503,
1695,2.241496801,1695,1.780599594,1695,1.934703946,1695,0.835390687,1695,0.9671700001,
1692,2.247431278,1692,1.684031129,1692,1.808250546,1692,0.8369273543,1692,0.9851180315,
1689,2.455555916,1689,1.794366717,1689,1.808268189,1689,1.018756866,1689,0.9570708275,
1686,2.245351315,1686,1.898845315,1686,1.725717068,1686,1.046882391,1686,0.8727888465,
1683,2.230928659,1683,1.687072039,1683,1.662142992,1683,0.9782408476,1683,1.012510777,
1680,2.162803888,1680,1.701563835,1680,1.872683167,1680,0.9319396615,1680,0.8964936137,
1677,2.105767727,1677,1.789647698,1677,1.847653508,1677,0.9222474694,1677,0.9350513816,
1674,2.39377594,1674,1.781572223,1674,1.838961244,1674,0.9911596775,1674,0.932322979,
1671,2.305455208,1671,1.850457072,1671,1.795400143,1671,0.9789915085,1671,0.9183652401,
1668,2.315214157,1668,1.824687004,1668,1.878638029,1668,0.8704088926,1668,0.925958693,
1665,2.424175262,1665,1.790689349,1665,1.779840469,1665,1.033388615,1665,0.9255988598,
1662,2.205708504,1662,1.804232001,1662,1.776973724,1662,0.9389365315,1662,0.7844802737,
1659,2.338937759,1659,1.703205705,1659,1.89797318,1659,0.9860795736,1659,0.9014818668,
1656,2.412550688,1656,1.869767308,1656,1.831349015,1656,0.9667037725,1656,0.878303051,
1653,2.37609148,1653,1.960364342,1653,1.886189342,1653,0.9261969328,1653,0.9121491313,
1650,2.275006533,1650,1.91899395,1650,1.829492092,1650,0.9525600076,1650,0.8142194748,
1647,2.393284321,1647,1.832131267,1647,1.878950953,1647,0.8454467058,1647,0.8613826632,
1644,2.288751125,1644,1.883098483,1644,1.909754276,1644,0.8341524005,1644,0.8797082305,
1641,2.261091232,1641,1.823286772,1641,1.797387004,1641,0.9860501885,1641,0.8840949535,
1638,2.277413845,1638,1.79775095,1638,1.837962508,1638,1.016233921,1638,0.945237577,
1635,2.251328707,1635,1.718513846,1635,1.89108777,1635,0.9120544195,1635,0.8642238379,
1632,2.436983347,1632,1.781296492,1632,1.898198009,1632,0.8688910007,1632,0.8517050147,
1629,2.363490343,1629,1.814097881,1629,1.706720352,1629,1.003399134,1629,0.8376595378,
1626,2.428172827,1626,1.906671047,1626,1.743044734,1626,0.8444061279,1626,0.9591987133,
1623,2.293678761,1623,1.851636529,1623,1.842443705,1623,0.9518865347,1623,0.9273876548,
1620,2.270597696,1620,1.761875629,1620,1.795613527,1620,0.8564955592,1620,0.932230711,
1617,2.265608788,1617,1.855366349,1617,1.910890102,1617,0.9732252955,1617,0.8740515709,
1614,2.340859175,1614,1.820826292,1614,1.915538311,1614,1.030902147,1614,0.80481565,
1611,2.324436903,1611,1.729842663,1611,1.76529026,1611,0.8803474903,1611,0.9963082075,
1608,2.323404789,1608,1.841351628,1608,1.83911097,1608,0.9369192719,1608,0.8390410542,
1605,2.359584808,1605,1.775227308,1605,1.889206409,1605,0.9647185802,1605,0.7909710407,
1602,2.314330339,1602,1.843248487,1602,1.841272354,1602,0.8789830208,1602,0.834800303,
1599,2.174366236,1599,1.872211933,1599,1.858721852,1599,0.8826838136,1599,0.6985031366,
1596,2.215691566,1596,1.856408834,1596,1.881554723,1596,0.8255028129,1596,0.853366673,
1593,2.208900928,1593,1.944165707,1593,1.830477953,1593,1.015256882,1593,0.8906556964,
1590,2.32234025,1590,1.871413708,1590,1.945700884,1590,0.8541187048,1590,0.8180470467,
1587,2.304081917,1587,1.838651061,1587,1.826600552,1587,0.909705162,1587,0.7933472991,
1584,2.351204634,1584,1.802940249,1584,1.878532052,1584,0.8726872206,1584,0.7551877499,
1581,2.353173971,1581,1.814167261,1581,1.842250466,1581,0.9333035946,1581,0.8284144998,
1578,2.160509586,1578,1.852975845,1578,1.810702682,1578,0.9226151705,1578,0.8350923657,
1575,2.210434437,1575,1.836442232,1575,1.876173139,1575,0.9210125804,1575,0.7585139275,
1572,2.296616316,1572,1.843684673,1572,1.94775784,1572,0.8853688836,1572,0.8197325468,
1569,2.432681084,1569,1.855241895,1569,1.808489084,1569,0.8802875876,1569,0.6845883727,
1566,2.352428675,1566,1.803870678,1566,1.788730502,1566,0.9343237877,1566,0.8063067794,
1563,2.293901205,1563,1.948657274,1563,1.854735017,1563,0.9469325542,1563,0.7325493097,
1560,2.337066174,1560,1.799773574,1560,1.872901082,1560,0.912032485,1560,0.829390645,
1557,2.22958684,1557,1.937106967,1557,1.870785117,1557,0.9113006592,1557,0.8821765184,
1554,2.165946722,1554,1.867741704,1554,1.886835337,1554,0.8638374805,1554,0.7853336334,
1551,2.171466351,1551,1.825139999,1551,1.948020935,1551,0.9035993218,1551,0.7774233222,
1548,2.251925945,1548,1.819390297,1548,1.847561479,1548,0.8342069387,1548,0.8198706508,
1545,2.351961613,1545,1.807246566,1545,1.845669031,1545,0.8715237379,1545,0.8356143832,
1542,2.32537961,1542,1.780373216,1542,1.898287058,1542,0.8328534365,1542,0.7676733136,
1539,2.30947113,1539,1.81435287,1539,1.911807656,1539,0.9251655936,1539,0.8285386562,
1536,2.140681028,1536,1.788514614,1536,1.868140101,1536,0.9022199512,1536,0.6751618385,
1533,2.126441717,1533,1.827907324,1533,1.878485799,1533,0.9004041553,1533,0.7493836284,
1530,2.204338789,1530,1.849836349,1530,1.890743375,1530,0.7972419262,1530,0.8236086965,
1527,2.264662981,1527,1.86058259,1527,1.82437861,1527,0.8537713289,1527,0.7613908648,
1524,2.310628891,1524,1.848216772,1524,1.812069893,1524,0.8545405865,1524,0.725076735,
1521,2.283005714,1521,1.853757143,1521,1.838507652,1521,0.8939116001,1521,0.7785279751,
1518,2.315810204,1518,1.833236456,1518,1.832031965,1518,0.90306288,1518,0.7794068456,
1515,2.186957598,1515,1.898385048,1515,1.899851322,1515,0.835272193,1515,0.6556409001,
1512,2.224082232,1512,1.838413596,1512,1.87387991,1512,0.8031505346,1512,0.802742064,
1509,2.163299084,1509,1.783650041,1509,1.823054314,1509,0.7966819406,1509,0.6975378394,
1506,2.232130527,1506,1.87266922,1506,1.810567856,1506,0.7834827304,1506,0.6910772324,
1503,2.305887938,1503,1.88164854,1503,1.771631837,1503,0.881346941,1503,0.7708810568,
1500,2.257910728,1500,1.843000889,1500,1.876131415,1500,0.8415240049,1500,0.7285551429,
1497,2.265515804,1497,1.855729103,1497,1.813094378,1497,0.9006268382,1497,0.6715552211,
1494,2.227184296,1494,1.76859045,1494,1.927436829,1494,0.9471260905,1494,0.8295075893,
1491,2.189192772,1491,1.862995863,1491,1.817448378,1491,0.9029225707,1491,0.7272606492,
1488,2.175973654,1488,1.815353394,1488,1.852298856,1488,0.8305028081,1488,0.7195318341,
1485,2.219290495,1485,1.80752635,1485,1.854795933,1485,0.7669526935,1485,0.7618719935,
1482,2.368700981,1482,1.822504044,1482,1.895890355,1482,0.857400775,1482,0.8424364924,
1479,2.35409236,1479,1.840428829,1479,1.871929884,1479,0.7972220778,1479,0.6738440394,
1476,2.306276321,1476,1.821504593,1476,1.911602974,1476,0.8322249055,1476,0.7142707705,
1473,2.273434639,1473,1.820974946,1473,1.885677695,1473,0.8049209714,1473,0.7319402099,
1470,2.129320383,1470,1.874354482,1470,1.819724798,1470,0.854567349,1470,0.66318506,
1467,2.19788599,1467,1.76576829,1467,1.854385376,1467,0.7966297865,1467,0.762575984,
1464,2.261154175,1464,1.807809591,1464,1.899823308,1464,0.8684429526,1464,0.759722352,
1461,2.315500021,1461,1.829954624,1461,1.798596025,1461,0.8102964759,1461,0.7527546287,
1458,2.23380971,1458,1.803177357,1458,1.851567626,1458,0.8179514408,1458,0.7947106957,
1455,2.270791292,1455,1.776340008,1455,1.830026507,1455,0.8278343081,1455,0.7141155005,
1452,2.25074029,1452,1.811154723,1452,1.839258909,1452,0.7695536017,1452,0.7523184419,
1449,2.16618681,1449,1.780187488,1449,1.846744299,1449,0.8505958319,1449,0.6897106171,
1446,2.100914955,1446,1.771901011,1446,1.840958714,1446,0.8569873571,1446,0.7292135954,
1443,2.194466352,1443,1.801245451,1443,1.788056493,1443,0.842035532,1443,0.6641724706,
1440,2.265954733,1440,1.849654913,1440,1.789607286,1440,0.7953926921,1440,0.6888400912,
1437,2.231961489,1437,1.865828991,1437,1.823371053,1437,0.8416374922,1437,0.6706326008,
1434,2.28199935,1434,1.814482927,1434,1.841721296,1434,0.7948983312,1434,0.7272151113,
1431,2.223917961,1431,1.790988803,1431,1.845533609,1431,0.8248791099,1431,0.7052367926,
1428,2.172259808,1428,1.850732923,1428,1.833938479,1428,0.7784096003,1428,0.6949389577,
1425,2.107906818,1425,1.848262191,1425,1.843534827,1425,0.8230250478,1425,0.6972116828,
1422,2.160946608,1422,1.82734859,1422,1.796574831,1422,0.8502072692,1422,0.7318658829,
1419,2.295485258,1419,1.77018714,1419,1.840521336,1419,0.8157054782,1419,0.6720956564,
1416,2.245835304,1416,1.827847242,1416,1.8566221,1416,0.7677291632,1416,0.7699192762,
1413,2.239518881,1413,1.829322457,1413,1.782115579,1413,0.8430069089,1413,0.6740477085,
1410,2.269918919,1410,1.848974109,1410,1.924213529,1410,0.8242540956,1410,0.7170943618,
1407,2.172226429,1407,1.819079757,1407,1.871127486,1407,0.8382080793,1407,0.6777569652,
1404,2.118072748,1404,1.817219377,1404,1.833149552,1404,0.7601261735,1404,0.6663416028,
1401,2.270525217,1401,1.867033124,1401,1.920340538,1401,0.8020280004,1401,0.7197194099,
1398,2.224986553,1398,1.77426374,1398,1.848643422,1398,0.7773703933,1398,0.6804234982,
1395,2.257829666,1395,1.808895111,1395,1.803342104,1395,0.8872243762,1395,0.7078747749,
1392,2.253245354,1392,1.809099078,1392,1.831161022,1392,0.8030333519,1392,0.6961491704,
1389,2.227392673,1389,1.857838392,1389,1.924019098,1389,0.8240909576,1389,0.6704267263,
1386,2.164354324,1386,1.865746856,1386,1.87980175,1386,0.8866383433,1386,0.7328826189,
1383,2.224535942,1383,1.885647178,1383,1.957119226,1383,0.8440201283,1383,0.7122241259,
1380,2.131124496,1380,1.768586636,1380,1.905928969,1380,0.8646066189,1380,0.7497560978,
1377,2.235032797,1377,1.84959662,1377,1.812661052,1377,0.8727121949,1377,0.6775465012,
1374,2.360374689,1374,1.861860752,1374,1.812771559,1374,0.8560734987,1374,0.7162057161,
1371,2.364057779,1371,1.842581272,1371,1.991853833,1371,0.8647124171,1371,0.7414702177,
1368,2.304608345,1368,1.848617554,1368,1.910695434,1368,0.8558564782,1368,0.7688293457,
1365,2.229167938,1365,1.837129474,1365,2.010459661,1365,0.8497570753,1365,0.7670916915,
1362,2.254211426,1362,1.908036351,1362,1.936515212,1362,0.8067087531,1362,0.7061906457,
1359,2.233193398,1359,1.892636299,1359,1.872054815,1359,0.8590439558,1359,0.7068001628,
1356,2.37680006,1356,1.879294157,1356,1.897925735,1356,0.8494831324,1356,0.7350678444,
1353,2.395021439,1353,1.874350071,1353,1.885247231,1353,0.8384765983,1353,0.6589522362,
1350,2.354081631,1350,1.804209113,1350,1.895520091,1350,0.8586246371,1350,0.6758633256,
1347,2.277968884,1347,1.934894562,1347,1.891297698,1347,0.844891727,1347,0.6208795309,
1344,2.230812788,1344,1.881016374,1344,1.956975698,1344,0.8314074278,1344,0.7383526564,
1341,2.242830992,1341,1.899388075,1341,1.888149619,1341,0.8581126332,1341,0.719468236,
1338,2.217790365,1338,1.845421433,1338,1.906525731,1338,0.8610270023,1338,0.6761847138,
1335,2.342338085,1335,1.869220614,1335,1.905726671,1335,0.805526495,1335,0.6517133117,
1332,2.365186214,1332,1.797732472,1332,1.87610054,1332,0.8301169872,1332,0.6311667562,
1329,2.281588316,1329,1.824143291,1329,1.895846009,1329,0.8366223574,1329,0.6843292713,
1326,2.314713478,1326,1.854486227,1326,1.895593286,1326,0.7878541946,1326,0.7305809259,
1323,2.194625139,1323,1.881099463,1323,1.908982873,1323,0.8731431365,1323,0.6814650893,
1320,2.167313814,1320,1.874449492,1320,1.884043455,1320,0.8247627616,1320,0.7049789429,
1317,2.227956533,1317,1.822245717,1317,1.918508291,1317,0.8572606444,1317,0.6670482159,
1314,2.293332577,1314,1.874237299,1314,1.877389312,1314,0.8075859547,1314,0.6679128408,
1311,2.40007925,1311,1.897147894,1311,1.851757646,1311,0.7804865241,1311,0.7269656062,
1308,2.303606749,1308,1.862129927,1308,1.914962769,1308,0.7836358547,1308,0.6685250998,
1305,2.362393379,1305,1.891744137,1305,1.961091399,1305,0.8279727697,1305,0.6899082065,
1302,2.150393009,1302,1.885909915,1302,1.915344596,1302,0.8276367784,1302,0.724124074,
1299,2.205389738,1299,1.879419804,1299,1.952109814,1299,0.8540297151,1299,0.7110133767,
1296,2.280018568,1296,1.943471074,1296,1.962725282,1296,0.8832095861,1296,0.6495779753,
1293,2.325499535,1293,1.8748945,1293,1.9007411,1293,0.8741815686,1293,0.6666584611,
1290,2.392370462,1290,1.860429883,1290,1.90729177,1290,0.826438427,1290,0.6621968746,
1287,2.387691259,1287,1.855670452,1287,1.861936808,1287,0.8494123816,1287,0.673083961,
1284,2.356969833,1284,1.926399231,1284,1.958131433,1284,0.7390075922,1284,0.6962652802,
1281,2.304714203,1281,1.855117321,1281,1.914384604,1281,0.8436350226,1281,0.7129772902,
1278,2.295993567,1278,1.897189617,1278,1.905420065,1278,0.8426220417,1278,0.6792648435,
1275,2.24602437,1275,1.881566644,1275,1.927553654,1275,0.897616148,1275,0.7001960278,
1272,2.322941542,1272,1.870083451,1272,1.820231557,1272,0.8460579515,1272,0.6827508807,
1269,2.348577738,1269,1.872618437,1269,1.797765732,1269,0.829865694,1269,0.606531322,
1266,2.348288536,1266,1.830313325,1266,1.939087152,1266,0.8765954375,1266,0.6875829101,
1263,2.344252825,1263,1.845252514,1263,1.918199897,1263,0.8315629363,1263,0.6664596796,
1260,2.248764992,1260,1.928395629,1260,1.864175081,1260,0.8501519561,1260,0.6637665033,
1257,2.252798796,1257,1.882692575,1257,1.899499059,1257,0.8094933033,1257,0.6835739017,
1254,2.264097929,1254,1.843241572,1254,1.906170726,1254,0.8412222266,1254,0.6757708788,
1251,2.267109871,1251,1.828361988,1251,1.822634459,1251,0.8091254234,1251,0.6692302227,
1248,2.380732775,1248,1.867240906,1248,1.867470384,1248,0.7868618965,1248,0.6107539535,
1245,2.372157574,1245,1.918517828,1245,1.890458345,1245,0.8686789274,1245,0.6899616122,
1242,2.379118204,1242,1.867253304,1242,1.913470745,1242,0.8225674629,1242,0.6694873571,
1239,2.263215542,1239,1.886058211,1239,1.880156755,1239,0.7851759791,1239,0.6424313188,
1236,2.210842133,1236,1.84769392,1236,1.925017834,1236,0.8946005106,1236,0.7473588586,
1233,2.303499699,1233,1.924601436,1233,1.947573066,1233,0.7988582253,1233,0.6477399468,
1230,2.375687122,1230,1.867843628,1230,1.861196399,1230,0.832239151,1230,0.5919919014,
1227,2.394785166,1227,1.81842649,1227,1.873219728,1227,0.8434555531,1227,0.5949088931,
1224,2.399223328,1224,1.90735817,1224,1.867605329,1224,0.7960701585,1224,0.6392143965,
1221,2.311549425,1221,1.855237603,1221,1.881847143,1221,0.7804345489,1221,0.7282351851,
1218,2.28230834,1218,1.85782373,1218,1.924155831,1218,0.8481997848,1218,0.6699355841,
1215,2.216682911,1215,1.828777432,1215,1.90007484,1215,0.8000711799,1215,0.5844787955,
1212,2.241272211,1212,1.84301281,1212,1.890410304,1212,0.7379151583,1212,0.7010959387,
1209,2.25655818,1209,1.913938642,1209,1.929781795,1209,0.7892346978,1209,0.6803777814,
1206,2.330962658,1206,1.874506116,1206,1.848119259,1206,0.8349176645,1206,0.6170870066,
1203,2.379557133,1203,1.841739893,1203,1.893980265,1203,0.829164207,1203,0.6285876036,
1200,2.414478064,1200,1.864294767,1200,1.876780629,1200,0.8459823132,1200,0.6515320539,
1197,2.35458827,1197,1.798874736,1197,1.772233248,1197,0.8000586033,1197,0.6474916935,
1194,2.402879715,1194,1.931161404,1194,1.885766149,1194,0.7561655045,1194,0.6261506081,
1191,2.361584902,1191,1.850744724,1191,1.842766285,1191,0.8022209406,1191,0.6150997877,
1188,2.310077667,1188,1.833387852,1188,1.864966512,1188,0.7596353292,1188,0.65795362,
1185,2.205383301,1185,1.929490447,1185,1.882662654,1185,0.7699168921,1185,0.5310260057,
1182,2.206127882,1182,1.851134777,1182,1.827417493,1182,0.7692103386,1182,0.6300612092,
1179,2.290210009,1179,1.851590157,1179,1.835141301,1179,0.7507181168,1179,0.64360255,
1176,2.265303612,1176,1.873394489,1176,1.863373995,1176,0.8046547771,1176,0.6110639572,
1173,2.401953936,1173,1.840121865,1173,1.826037645,1173,0.8482991457,1173,0.6421949863,
1170,2.407259226,1170,1.851880193,1170,1.896604657,1170,0.7981942892,1170,0.6285371184,
1167,2.331282377,1167,1.901226163,1167,1.832553387,1167,0.8143825531,1167,0.6312583089,
1164,2.237662554,1164,1.949244499,1164,1.962669611,1164,0.7460634112,1164,0.6136704683,
1161,2.262523651,1161,1.899820209,1161,1.875472665,1161,0.7889676094,1161,0.5991075039,
1158,2.304363489,1158,1.871806979,1158,1.871389508,1158,0.7354201078,1158,0.6123558879,
1155,2.356531382,1155,1.891818404,1155,1.853872657,1155,0.7867303491,1155,0.6696743965,
1152,2.408684254,1152,1.885299563,1152,1.864281654,1152,0.7495203018,1152,0.6377918124,
1149,2.356873274,1149,1.909553409,1149,1.863067627,1149,0.7780511379,1149,0.6405422091,
1146,2.371669531,1146,1.922725558,1146,1.923728704,1146,0.775214076,1146,0.6538992524,
1143,2.301931858,1143,1.87465477,1143,1.898032069,1143,0.7844807506,1143,0.6568152905,
1140,2.264658451,1140,1.943017125,1140,1.917304635,1140,0.84506917,1140,0.6048464179,
1137,2.296092987,1137,1.885233283,1137,1.883135796,1137,0.7796620727,1137,0.6368317604,
1134,2.391541004,1134,1.949924827,1134,1.802220702,1134,0.8041043878,1134,0.6714595556,
1131,2.380841494,1131,1.888525248,1131,1.879391074,1131,0.7180182934,1131,0.600921154,
1128,2.423973083,1128,1.884563208,1128,1.83609581,1128,0.8427555561,1128,0.5766060948,
1125,2.394086599,1125,1.891609788,1125,1.896237016,1125,0.7998925447,1125,0.6368582249,
1122,2.286683083,1122,1.920768023,1122,1.897970557,1122,0.7494501472,1122,0.6391491294,
1119,2.33463192,1119,1.900724649,1119,1.880011559,1119,0.8083361983,1119,0.6059164405,
1116,2.347198486,1116,1.92382431,1116,1.892995477,1116,0.8037850261,1116,0.6089320779,
1113,2.385719776,1113,1.896470189,1113,1.857035041,1113,0.8405382633,1113,0.6092703938,
1110,2.397784472,1110,1.876043558,1110,1.871111989,1110,0.7403002381,1110,0.6608785391,
1107,2.411475658,1107,1.91678369,1107,1.848777175,1107,0.7505928278,1107,0.595638454,
1104,2.437919378,1104,1.926944733,1104,1.883062363,1104,0.7929148078,1104,0.6598639488,
1101,2.313717604,1101,1.873862982,1101,1.92018044,1101,0.7917114496,1101,0.6205475926,
1098,2.321796656,1098,1.859908223,1098,1.870422602,1098,0.7881818414,1098,0.605840683,
1095,2.254935026,1095,1.881227493,1095,1.88743341,1095,0.75722754,1095,0.5767339468,
1092,2.412822008,1092,1.871146202,1092,1.889460325,1092,0.8173767328,1092,0.5743762851,
1089,2.345823288,1089,1.901728988,1089,1.898461938,1089,0.8125378489,1089,0.6321350932,
1086,2.410883427,1086,1.906155229,1086,1.901304364,1086,0.7648440599,1086,0.5943924785,
1083,2.396917582,1083,1.878260255,1083,1.865647316,1083,0.7597332597,1083,0.6029564142,
1080,2.276495934,1080,1.966153979,1080,1.866748929,1080,0.8088715076,1080,0.6885114908,
1077,2.314833641,1077,1.885977626,1077,1.906741023,1077,0.8299751878,1077,0.6055945754,
1074,2.29697752,1074,1.908282518,1074,1.939095378,1074,0.8132676482,1074,0.6525030732,
1071,2.410065651,1071,1.880280256,1071,1.818236709,1071,0.7387795448,1071,0.6035438776,
1068,2.438224792,1068,1.833269358,1068,1.872430563,1068,0.8241434693,1068,0.6585884094,
1065,2.444577932,1065,1.834006071,1065,1.890420318,1065,0.7576115131,1065,0.6049306393,
1062,2.445259094,1062,1.885860801,1062,1.871477962,1062,0.7819667459,1062,0.6063679457,
1059,2.396899223,1059,1.850932598,1059,1.890403986,1059,0.8236978054,1059,0.5789369345,
1056,2.327927589,1056,1.935272813,1056,1.923276901,1056,0.7972335219,1056,0.624565959,
1053,2.311705828,1053,1.983804107,1053,1.906768084,1053,0.7714936733,1053,0.5775261521,
1050,2.389037609,1050,1.942905784,1050,1.872830272,1050,0.8123816848,1050,0.6210710406,
1047,2.419523239,1047,1.916053176,1047,1.890778184,1047,0.8270518184,1047,0.6219928861,
1044,2.403222799,1044,1.872430205,1044,1.912300467,1044,0.8304529786,1044,0.6311141253,
1041,2.450223684,1041,1.945833325,1041,1.966762185,1041,0.8569382429,1041,0.6377624869,
1038,2.403627396,1038,1.92023778,1038,1.941256642,1038,0.8184098601,1038,0.5906599164,
1035,2.348430157,1035,1.873270988,1035,1.862671733,1035,0.7463538647,1035,0.5581218004,
1032,2.334229708,1032,1.798109174,1032,1.952632308,1032,0.8625593781,1032,0.6013036966,
1029,2.356194019,1029,1.886528134,1029,1.780581713,1029,0.7817161083,1029,0.6755945086,
1026,2.457256556,1026,1.854149818,1026,1.872756004,1026,0.8576027155,1026,0.6369600296,
1023,2.48805666,1023,1.829999924,1023,1.870299101,1023,0.8009230494,1023,0.6284668446,
1020,2.517806292,1020,1.932481647,1020,1.929598689,1020,0.8470283151,1020,0.6198129058,
1017,2.436994553,1017,1.974964857,1017,2.019881725,1017,0.8544197083,1017,0.558752358,
1014,2.300766945,1014,1.913314462,1014,2.001675367,1014,0.8287650347,1014,0.6643430591,
1011,2.265934706,1011,2.027271032,1011,1.976504683,1011,0.9493477345,1011,0.670118928,
1008,2.423531055,1008,2.021500826,1008,1.874998808,1008,0.8716331124,1008,0.603567183,
1005,2.411980867,1005,1.88157618,1005,1.913697839,1005,0.842913866,1005,0.6448880434,
1002,2.445521116,1002,1.981132865,1002,2.014565229,1002,0.9110994339,1002,0.6762934327,
999,2.448390722,999,1.902215719,999,1.993481994,999,0.8851898909,999,0.6308138967,
996,2.363206148,996,1.850561619,996,1.990730166,996,0.8382767439,996,0.7045974731,
993,2.330310583,993,1.83656776,993,1.96924603,993,0.8601769805,993,0.6266337633,
990,2.380343437,990,1.971382976,990,1.980505466,990,0.797814846,990,0.6911135912,
987,2.406501532,987,1.950085163,987,1.941864729,987,0.9508495927,987,0.7030398846,
984,2.518312931,984,2.050246954,984,1.950048447,984,0.9516229033,984,0.7634729743,
981,2.478969812,981,1.983113408,981,2.050184965,981,0.7598782182,981,0.8481128812,
978,2.505374432,978,2.043600321,978,1.972059965,978,0.9642602205,978,0.7751037478,
975,2.659672022,975,1.909615874,975,1.982156754,975,0.8733373284,975,0.6430113316,
972,2.371928215,972,1.96836257,972,2.046962738,972,0.8601830602,972,0.6008329391,
969,2.353580713,969,1.956527472,969,2.000449896,969,1.09573245,969,0.5893580914,
966,2.438325405,966,1.983358383,966,1.895854115,966,0.7237869501,966,0.578658998,
963,2.617498636,963,2.009188414,963,2.102971792,963,0.8765358329,963,0.5583199859,
960,2.596497059,960,2.072623968,960,2.035493851,960,0.9245396852,960,0.7013524771,
957,2.564548254,957,2.047742605,957,1.933157444,957,0.8162927628,957,0.8133658171,
954,2.580658436,954,2.003454208,954,2.117601871,954,1.072891831,954,0.6567053199,
951,2.564724922,951,2.178763151,951,2.072747469,951,0.9043715,951,0.6665724516,
948,2.585636616,948,2.060754538,948,2.246112108,948,1.047182322,948,0.8009024858,
945,2.399553776,945,2.074594021,945,2.164587259,945,1.064492941,945,0.9358962178,
942,2.766974926,942,1.804804206,942,2.30353713,942,1.034522533,942,0.700052321,
939,2.628637552,939,2.124986887,939,2.200803995,939,0.8324197531,939,0.6327015758,
936,2.844181538,936,1.991378546,936,2.122818947,936,0.9531679749,936,0.8719480634,
933,2.512633324,933,1.986616611,933,2.226016283,933,1.080520868,933,0.7668365836,
930,2.575102091,930,2.324377537,930,2.337335587,930,1.142176509,930,0.9799844623,
927,2.632764339,927,2.298190832,927,2.34708643,927,1.18027091,927,0.7372146249,
924,2.733249903,924,2.397843838,924,2.23895359,924,1.083287001,924,0.7873232365,
921,2.874769211,921,2.316272259,921,2.566440821,921,1.041719675,921,0.8922041655,
918,2.719935894,918,2.282783508,918,2.258561611,918,0.7656504512,918,0.8225000501,
915,2.918649197,915,2.664949894,915,2.440254927,915,1.215942144,915,0.9927625656,
912,3.046904087,912,2.503110409,912,2.449248075,912,1.224133611,912,1.226703405,
909,2.641391754,909,2.66742301,909,2.516659021,909,1.188887239,909,0.9733842611,
906,2.862593651,906,2.767315865,906,2.283239365,906,1.136795163,906,0.7688491344,
903,2.84787941,903,2.653528214,903,2.415932417,903,1.384525537,903,1.341456413,
900,3.165131092,900,2.381880283,900,2.74302578,900,1.436319828,900,1.312336087,
897,3.048291683,897,2.540066719,897,2.406706095,897,1.161697388,897,1.208761334,
894,3.127065659,894,2.777623892,894,2.920716047,894,1.723876834,894,1.05389452,
891,3.303350925,891,2.815972567,891,2.834516287,891,1.238299966,891,1.179623365,
888,2.91775012,888,2.777956724,888,2.845573664,888,1.632304668,888,1.613078237,
885,3.003066301,885,2.463302135,885,3.102550745,885,2.09425354,885,1.23391223,
882,3.551260471,882,3.241834879,882,2.864132404,882,1.472438812,882,2.093789101,
879,3.775341749,879,3.387649298,879,3.191511631,879,1.231284857,879,1.286592484,
876,4.361439705,876,2.336936474,876,3.434256554,876,2.168788195,876,1.537148356,
873,3.823887825,873,2.521286011,873,2.774719954,873,1.3769871,873,2.063012123,
870,4.119329453,870,2.896887064,870,3.729073286,870,2.477404594,870,2.32801652,
867,3.90417695,867,3.824509382,867,2.634802341,867,2.203333139,867,1.793970942,
864,4.237343311,864,3.907727003,864,2.686576843,864,1.811815739,864,1.597337008,
861,3.403611898,861,3.478049517,861,4.402480125,861,1.931036234,861,2.023483515,
858,4.970812321,858,3.957179546,858,3.188387394,858,2.843101978,858,2.143668175,
855,4.854686737,855,3.526715994,855,4.023053646,855,2.735754967,855,1.057336926,
852,4.638866901,852,3.615694761,852,4.087729931,852,2.42034936,852,2.494371176,
849,5.973974228,849,3.747299194,849,4.490650177,849,2.750244856,849,2.920194149,
846,3.580517054,846,4.391902924,846,4.61875391,846,2.897478342,846,3.141826391,
843,6.186510086,843,4.110662937,843,5.128434181,843,2.627461433,843,3.185166836,
840,3.891357422,840,4.947770596,840,6.936281204,840,3.493295908,840,2.687185287,
837,6.907702923,837,4.211257458,837,4.15541029,837,3.948161125,837,3.500075579,
834,6.75087738,834,3.692886591,834,4.853321552,834,4.062083244,834,2.595625639,
831,8.002738953,831,3.795753717,831,5.767414093,831,4.581838131,831,1.853037238,
828,7.243403912,828,5.682760239,828,4.371581078,828,4.809900284,828,3.476502657,
825,7.266763687,825,5.699352741,825,4.728176594,825,4.248425007,825,3.881099701,
822,4.761664391,822,5.91540575,822,5.135297298,822,5.347159386,822,6.64222002,
819,4.582237244,819,5.051347256,819,5.277484417,819,6.582317352,819,5.19268465,
816,7.953568459,816,5.746100426,816,5.927494526,816,4.272700787,816,4.00608778,
813,8.80737114,813,3.703691006,813,6.165251255,813,3.077399254,813,5.893729687,
810,7.704415321,810,8.03404808,810,5.403349876,810,5.541215897,810,4.373712063,
807,7.349416733,807,4.923676491,807,7.729629993,807,3.331081152,807,3.080023766,
804,9.600587845,804,8.01444149,804,9.342345238,804,4.562718868,804,1.673276544,
801,9.52318573,801,8.111099243,801,7.756768227,801,4.749163151,801,5.767935753,
798,10.57330036,798,6.386999607,798,7.548789024,798,8.901818275,798,5.83103323,
797,3.957752228,797,1.522454381,797,1.583700776,797,0.6447729468,797,0.3773498237,
796,3.924699783,796,1.500950217,796,1.556295395,796,0.6290326715,796,0.3869586885,
795,4.042166233,795,1.468817472,795,1.534359097,795,0.6503680944,795,0.3871574104,
794,4.342400074,794,1.493811727,794,1.492609501,794,0.6376021504,794,0.3523924053,
793,4.450675488,793,1.462982893,793,1.467550278,793,0.6458755732,793,0.369317174,
792,4.451910973,792,1.437638283,792,1.457220912,792,0.628683567,792,0.3774032593,
791,4.39329052,791,1.402190685,791,1.452171564,791,0.6148709655,791,0.3838511407,
790,4.014697075,790,1.417819858,790,1.429217458,790,0.6255597472,790,0.3759770989,
789,3.843649149,789,1.383923411,789,1.390153766,789,0.6458589435,789,0.3615547419,
788,3.951540947,788,1.37319541,788,1.365795016,788,0.6319610476,788,0.3649097085,
787,4.266851425,787,1.357921243,787,1.316530108,787,0.609318316,787,0.3626719117,
786,4.469621181,786,1.350969672,786,1.3013556,786,0.604003191,786,0.3736507595,
785,4.423662186,785,1.322661519,785,1.274718523,785,0.6137062907,785,0.3534928858,
784,4.381696224,784,1.302790046,784,1.262045026,784,0.6162327528,784,0.3516452909,
783,4.019007683,783,1.278112888,783,1.242254615,783,0.591950655,783,0.3553546071,
782,3.854221582,782,1.272277951,782,1.232434154,782,0.6039626002,782,0.3613027036,
781,3.94188714,781,1.277893424,781,1.193329453,781,0.6025277376,781,0.3448141813,
780,4.149980545,780,1.255866289,780,1.173514009,780,0.6025291681,780,0.3541564643,
779,4.429263115,779,1.252896547,779,1.135872722,779,0.6049824953,779,0.3635491133,
778,4.394358158,778,1.235644937,778,1.144623399,778,0.5891153812,778,0.3651542962,
777,4.326565266,777,1.222660899,777,1.133351326,777,0.5884225965,777,0.3593811095,
776,3.964544773,776,1.197271824,776,1.110391974,776,0.588214159,776,0.3614884019,
775,3.856342316,775,1.190298796,775,1.092625737,775,0.5803956985,775,0.3451539576,
774,3.904809475,774,1.199686885,774,1.083017826,774,0.5940842628,774,0.3386870921,
773,4.070984364,773,1.200382829,773,1.055688143,773,0.5920436978,773,0.3470500708,
772,4.369182587,772,1.192295313,772,1.036432266,772,0.5846656561,772,0.3470051885,
771,4.361958504,771,1.153992176,771,1.024806261,771,0.5803973675,771,0.3573266566,
770,4.262099266,770,1.144454122,770,1.002796888,770,0.5605659485,770,0.3370065093,
769,3.996306181,769,1.138639331,769,1.002119303,769,0.5678525567,769,0.3442068398,
768,3.818180323,768,1.098092794,768,0.9825792909,768,0.5796197057,768,0.3445092738,
767,3.824020147,767,1.116322041,767,0.9753383398,767,0.5599457622,767,0.3549402654,
766,4.008317947,766,1.105442643,766,0.9410054684,766,0.5597643852,766,0.3309908211,
765,4.309724808,765,1.107843876,765,0.907574594,765,0.550044477,765,0.3426486254,
764,4.285491467,764,1.088042498,764,0.8955061436,764,0.5653993487,764,0.3400093615,
763,4.254728317,763,1.075128675,763,0.8875307441,763,0.545612514,763,0.3400472999,
762,3.961081505,762,1.062091708,762,0.8760920763,762,0.5349467397,762,0.3376769125,
761,3.754325628,761,1.045821786,761,0.8500751257,761,0.5373253822,761,0.3302318752,
760,3.718922615,760,1.050994635,760,0.8491607308,760,0.5435442924,760,0.319735378,
759,3.856931925,759,1.039860249,759,0.8296153545,759,0.5475946665,759,0.3267477453,
758,4.245765686,758,1.047909379,758,0.8041673303,758,0.5312148929,758,0.3374815583,
757,4.219624043,757,1.027144432,757,0.7943447828,757,0.518383801,757,0.3262504339,
756,4.169131756,756,1.012610793,756,0.7808600664,756,0.5195190907,756,0.3237216473,
755,3.92687273,755,0.9979861975,755,0.76316607,755,0.5233511329,755,0.3188967407,
754,3.660381317,754,0.9849649668,754,0.741980195,754,0.5153206587,754,0.3235486448,
753,3.636851788,753,0.9704751968,753,0.7520982027,753,0.5089731216,753,0.328430891,
752,3.772339344,752,0.974383235,752,0.7148249745,752,0.4996293187,752,0.31866014,
751,4.103419781,751,0.9632661939,751,0.7015115023,751,0.5067967176,751,0.3119145036,
750,4.084608555,750,0.9706449509,750,0.6942298412,750,0.4956708848,750,0.3180393875,
749,4.015674114,749,0.9475315809,749,0.6773528457,749,0.4842165411,749,0.3108792603,
748,3.794418573,748,0.9245969057,748,0.6666977406,748,0.4882672727,748,0.3134972155,
747,3.536605358,747,0.9228686094,747,0.6676954031,747,0.4881895185,747,0.3131814897,
746,3.320492506,746,0.9227389693,746,0.6466507316,746,0.4827403426,746,0.3118085563,
745,3.572022915,745,0.9431512952,745,0.6377130747,745,0.4743481576,745,0.3083059788,
744,3.948361397,744,0.9309988618,744,0.6146613359,744,0.4783901274,744,0.3103212714,
743,3.905616999,743,0.9185842276,743,0.6092745066,743,0.4718726575,743,0.3051994741,
742,3.874183416,742,0.9084770679,742,0.6056428552,742,0.4669957459,742,0.3106773496,
741,3.657331944,741,0.9001856446,741,0.6081255674,741,0.4745144248,741,0.3028539717,
740,3.246263027,740,0.8735542297,740,0.5786201358,740,0.4666652679,740,0.3013458848,
739,3.250286102,739,0.8850882053,739,0.5859952569,739,0.4613150358,739,0.2937003374,
738,3.433968544,738,0.8921915889,738,0.5691387057,738,0.4577947855,738,0.2919802666,
737,3.772930384,737,0.8971115351,737,0.5676189065,737,0.469130367,737,0.2924645245,
736,3.784357309,736,0.8711592555,736,0.55477947,736,0.450996995,736,0.2915877998,
735,3.743928671,735,0.8783557415,735,0.5557718873,735,0.4559699297,735,0.291433394,
734,3.594313622,734,0.8559370637,734,0.5491328239,734,0.4451315403,734,0.2991470397,
733,3.013284922,733,0.8522245288,733,0.5458114147,733,0.4471979141,733,0.2955150902,
732,3.145653009,732,0.855674386,732,0.5356490016,732,0.4402905107,732,0.2930671573,
731,3.087736368,731,0.8544050455,731,0.5321092606,731,0.4428388178,731,0.282391876,
730,3.683113575,730,0.8543351889,730,0.524128139,730,0.4342067838,730,0.2926289439,
729,3.714569569,729,0.8575453162,729,0.5158292055,729,0.4415340722,729,0.2812291086,
728,3.693873882,728,0.8509500027,728,0.5162342191,728,0.4301423728,728,0.2856329381,
727,3.572456837,727,0.8400979638,727,0.5175480843,727,0.440525651,727,0.2839161456,
726,3.079277754,726,0.8336640596,726,0.5024542809,726,0.429261893,726,0.2869219482,
725,3.126587629,725,0.8213730454,725,0.503182292,725,0.4331281483,725,0.2786111236,
724,3.044341803,724,0.8429583907,724,0.4952296019,724,0.4240535796,724,0.277723968,
723,3.380375385,723,0.8439612389,723,0.4998761714,723,0.4281377494,723,0.2751118243,
722,3.64539814,722,0.8297846913,722,0.5010874867,722,0.4277410805,722,0.2799093723,
721,3.616974115,721,0.829272449,721,0.4987921715,721,0.4317598343,721,0.2792693079,
720,3.384708643,720,0.8216196895,720,0.4957778752,720,0.4254488349,720,0.2764947116,
719,2.975721598,719,0.8095117211,719,0.4873266816,719,0.4224688709,719,0.2732215822,
718,2.99521327,718,0.7950986028,718,0.4784882963,718,0.4185223877,718,0.2735764682,
717,3.000979424,717,0.8222689033,717,0.4740037024,717,0.4207374156,717,0.269802928,
716,3.407687664,716,0.8188868165,716,0.4795970023,716,0.4257785082,716,0.272592932,
715,3.336770535,715,0.8131565452,715,0.4732833803,715,0.4195226729,715,0.2719871998,
714,3.496669292,714,0.8068605065,714,0.4679895341,714,0.4153441191,714,0.2708675265,
713,3.265580177,713,0.7809286118,713,0.4684064388,713,0.4191913307,713,0.2707875669,
712,2.93761754,712,0.7817887068,712,0.4722303748,712,0.4091712534,712,0.2661913335,
711,2.936269522,711,0.774187386,711,0.4680398703,711,0.4162107706,711,0.2560587227,
710,2.873998404,710,0.7828854918,710,0.4762097299,710,0.4151782393,710,0.2696611881,
709,3.005120993,709,0.7860267758,709,0.4681070745,709,0.4125052691,709,0.2660913169,
708,3.374086618,708,0.7815752029,708,0.4657389522,708,0.4107195437,708,0.2666858733,
707,3.148471832,707,0.7783242464,707,0.4719561934,707,0.4078179598,707,0.2619877756,
706,3.000321865,706,0.7528350353,706,0.467644453,706,0.4094505608,706,0.2656383812,
705,2.896345377,705,0.7570333481,705,0.4562931657,705,0.4038438201,705,0.2555416226,
704,2.825417042,704,0.7567970753,704,0.4707354009,704,0.4151960015,704,0.2523860931,
703,2.798594475,703,0.752448976,703,0.4623169601,703,0.403862536,703,0.2484678775,
702,2.958410025,702,0.7654436827,702,0.4672191441,702,0.4110066295,702,0.2497283518,
701,3.06040144,701,0.7575745583,701,0.4639569521,701,0.4073206782,701,0.2489791065,
700,2.987493992,700,0.7556673884,700,0.4592386186,700,0.4109190404,700,0.2539911568,
699,2.949879646,699,0.7421218753,699,0.4624288678,699,0.4013762474,699,0.2547358871,
698,2.813570976,698,0.738048017,698,0.46063146,698,0.4034885764,698,0.249500066,
697,2.76774931,697,0.7473927736,697,0.4682686627,697,0.3987552524,697,0.2527400553,
696,2.741606712,696,0.7479686141,696,0.463801384,696,0.4039474428,696,0.2477018684,
695,2.896933794,695,0.7677231431,695,0.4731384218,695,0.4086541533,695,0.2506481409,
694,2.968991995,694,0.7676544189,694,0.469946444,694,0.413009584,694,0.2534352541,
693,3.117336988,693,0.7667897344,693,0.47267434,693,0.4108641148,693,0.251532495,
692,2.898355961,692,0.7530719638,692,0.4807220697,692,0.4038588703,692,0.2466924042,
691,2.797197104,691,0.7492310405,691,0.4721378386,691,0.4029525518,691,0.2519491613,
690,2.794055939,690,0.7607446313,690,0.4799694717,690,0.4090027809,690,0.2505857646,
689,2.85188508,689,0.760879159,689,0.4866013229,689,0.4100148976,689,0.2572195232,
688,2.901967525,688,0.7727472186,688,0.4723846018,688,0.4020670056,688,0.2520162761,
687,3.048695326,687,0.7743033171,687,0.4819817245,687,0.4091886878,687,0.2470317781,
686,3.023462296,686,0.7828626633,686,0.474401176,686,0.405002445,686,0.2563501,
685,3.203834295,685,0.7832517028,685,0.4783287644,685,0.4080954492,685,0.250897646,
684,2.945990086,684,0.7650347352,684,0.4839077592,684,0.3991428614,684,0.2510864735,
683,2.869724512,683,0.7717480063,683,0.4724048972,683,0.4008843005,683,0.2472243011,
682,2.852132559,682,0.7784264088,682,0.4744456708,682,0.3952765465,682,0.2458990365,
681,2.835306644,681,0.7846698165,681,0.4648810625,681,0.3932298124,681,0.2440656126,
680,3.146186113,680,0.7930071354,680,0.4664348066,680,0.3929238915,680,0.2454413176,
679,3.267322063,679,0.7899483442,679,0.457731545,679,0.3880243301,679,0.2462154329,
678,3.085721493,678,0.7809271812,678,0.4558122158,678,0.3863074183,678,0.2458031029,
677,2.946360111,677,0.7752885222,677,0.4517473876,677,0.3773280978,677,0.2449183017,
676,2.874195576,676,0.7720391154,676,0.44969666,676,0.3731226623,676,0.245349437,
675,2.902838945,675,0.7832762599,675,0.4478349388,675,0.3672250509,675,0.2401347756,
674,2.89545846,674,0.7956637144,674,0.4419234991,674,0.36729756,674,0.2411710024,
673,3.209970951,673,0.7892173529,673,0.439959079,673,0.3624252975,673,0.2364402413,
672,3.270422935,672,0.7927959561,672,0.4354982972,672,0.3612332046,672,0.2362197042,
671,2.992497683,671,0.7894300818,671,0.4374187589,671,0.3571671247,671,0.2394352853,
670,2.900657654,670,0.7864474058,670,0.4404802918,670,0.3527134061,670,0.2346105427,
669,2.803094387,669,0.7947339416,669,0.4350613356,669,0.3493251204,669,0.2353302836,
668,2.857171535,668,0.799842298,668,0.4417301714,668,0.3516027033,668,0.236720711,
667,2.920428038,667,0.8276770711,667,0.4431411028,667,0.3575143516,667,0.235228613,
666,3.256120205,666,0.8241515756,666,0.449013561,666,0.3548662961,666,0.2364216149,
665,3.19339776,665,0.8377495408,665,0.4539695084,665,0.3485264778,665,0.2367491424,
664,3.118002892,664,0.8368558288,664,0.4636666775,664,0.3531247079,664,0.2342530787,
663,3.147167683,663,0.8396165371,663,0.4698894024,663,0.3502902687,663,0.2374990582,
662,2.901976109,662,0.842929244,662,0.4740156233,662,0.3493411839,662,0.2369706333,
661,2.91892314,661,0.8496264815,661,0.4773061275,661,0.3430098891,661,0.2342353612,
660,2.880562544,660,0.8660030365,660,0.4804885387,660,0.3511714935,660,0.2302901745,
659,3.168076277,659,0.8744487762,659,0.480655998,659,0.3494578302,659,0.2337559164,
658,3.130255222,658,0.8790779114,658,0.4858181477,658,0.3476353586,658,0.2308190167,
657,3.076007128,657,0.8852961659,657,0.4957057536,657,0.3437561691,657,0.2314063758,
656,3.108555555,656,0.8737269044,656,0.5063350797,656,0.3399154842,656,0.2326797694,
655,2.87947011,655,0.8786947727,655,0.5110999346,655,0.3372832239,655,0.2292310148,
654,2.824529886,654,0.882122457,654,0.5153412223,654,0.34069857,654,0.2281627655,
653,2.883380413,653,0.8979611397,653,0.5100838542,653,0.3400232792,653,0.23063232,
652,2.93848443,652,0.8984720111,652,0.5146825314,652,0.3410505056,652,0.2284133583,
651,2.997443676,651,0.8987802267,651,0.5116457343,651,0.3366723657,651,0.2264677137,
650,3.072885513,650,0.901373744,650,0.5217048526,650,0.3346422613,650,0.2272408456,
649,2.897644043,649,0.8985689878,649,0.5323576331,649,0.3281109631,649,0.2224791348,
648,2.810736179,648,0.8913809657,648,0.5250861049,648,0.330103755,648,0.2226159871,
647,2.793957233,647,0.8958121538,647,0.525731802,647,0.3265933096,647,0.2197282165,
646,2.806980133,646,0.8991393447,646,0.5206969976,646,0.3257990181,646,0.2144725472,
645,2.938364506,645,0.9030874968,645,0.5126937628,645,0.333011657,645,0.2203932554,
644,2.946886301,644,0.8963392377,644,0.5112303495,644,0.3235207796,644,0.2167657316,
643,2.891559124,643,0.8869225979,643,0.5124170184,643,0.3214934468,643,0.2132252604,
642,2.811208725,642,0.8710600138,642,0.5113705397,642,0.3180760443,642,0.2129619718,
641,2.688044071,641,0.8624545336,641,0.5001828671,641,0.313480258,641,0.2119958848,
640,2.66275382,640,0.8570286632,640,0.4944055378,640,0.3165108263,640,0.2103490978,
639,2.681932449,639,0.8614240885,639,0.4833911657,639,0.312984705,639,0.2072136551,
638,2.790043354,638,0.8543424606,638,0.4755166471,638,0.3130662143,638,0.2039946616,
637,2.871558905,637,0.8505422473,637,0.4701831937,637,0.3114925921,637,0.20537588,
636,2.884294987,636,0.8414880633,636,0.458692342,636,0.304620564,636,0.2027393728,
635,2.809679985,635,0.8253555894,635,0.4536209702,635,0.3040224612,635,0.2029153556,
634,2.554359198,634,0.8111980557,634,0.4468322694,634,0.3009613752,634,0.2006528378,
633,2.518703699,633,0.8061374426,633,0.4373188615,633,0.2989540398,633,0.1975089312,
632,2.539360285,632,0.8091018796,632,0.426156342,632,0.2966473103,632,0.1973210126,
631,2.719910145,631,0.8086850047,631,0.4124778807,631,0.2999050617,631,0.1950779706,
630,2.803913116,630,0.7992243171,630,0.4093814492,630,0.2984501123,630,0.1964847744,
629,2.767840862,629,0.7876161337,629,0.403360039,629,0.2941511869,629,0.1953735501,
628,2.704847813,628,0.7722103596,628,0.3983654678,628,0.2905656695,628,0.1910315603,
627,2.472507954,627,0.7671090364,627,0.3898648024,627,0.2874159813,627,0.1920931041,
626,2.426049471,626,0.7643212676,626,0.3847820461,626,0.2879872918,626,0.1869844496,
625,2.441529036,625,0.7645253539,625,0.3730134964,625,0.2850434482,625,0.1892589629,
624,2.641053677,624,0.7682132125,624,0.362952739,624,0.2857664824,624,0.1863137037,
623,2.751408339,623,0.7632601261,623,0.3571106195,623,0.2857984602,623,0.1856624931,
622,2.713130236,622,0.7638779283,622,0.3523686528,622,0.2821647525,622,0.1855217069,
621,2.667888403,621,0.7435399294,621,0.348495543,621,0.2769131958,621,0.1822258979,
620,2.425743341,620,0.7310171723,620,0.3424058855,620,0.2769535184,620,0.1810706705,
619,2.368193388,619,0.7373405695,619,0.3392859995,619,0.2739636302,619,0.1801430434,
618,2.384319067,618,0.7380357385,618,0.3297530711,618,0.2740204334,618,0.1776552498,
617,2.576338768,617,0.7350760102,617,0.3256395161,617,0.2753457129,617,0.177543804,
616,2.69884181,616,0.7353206873,616,0.3181268573,616,0.2745489478,616,0.1765065789,
615,2.662673473,615,0.7346599102,615,0.3140146732,615,0.2735152841,615,0.1763392389,
614,2.620603323,614,0.7166190743,614,0.3140149713,614,0.2663609684,614,0.1771181822,
613,2.407966852,613,0.7076627016,613,0.3041167855,613,0.2641349435,613,0.1758377701,
612,2.311716557,612,0.7063938975,612,0.298328042,612,0.2657973766,612,0.1701512039,
611,2.333100319,611,0.7038179636,611,0.296218425,611,0.2660342753,611,0.1710906625,
610,2.476029396,610,0.7162461877,610,0.2825002968,610,0.2672947049,610,0.1704447716,
609,2.621823072,609,0.7092830539,609,0.2813291252,609,0.2663953602,609,0.1726151556,
608,2.616145611,608,0.7048025727,608,0.2750937045,608,0.2662417293,608,0.1691527665,
607,2.560358047,607,0.6932201385,607,0.274923265,607,0.2588041127,607,0.1687440872,
606,2.368859529,606,0.6828681827,606,0.2701597214,606,0.2582458556,606,0.1690611839,
605,2.274454594,605,0.6832296252,605,0.2645342946,605,0.26074031,605,0.1677099466,
604,2.286000252,604,0.6831406355,604,0.2609663606,604,0.2592042387,604,0.1652892977,
603,2.416811705,603,0.6939659119,603,0.2533638179,603,0.2645586729,603,0.1646961123,
602,2.589237452,602,0.6869626045,602,0.2525105476,602,0.2612117827,602,0.1651440859,
601,2.576767921,601,0.6874962449,601,0.2495871186,601,0.2606321275,601,0.1662510931,
600,2.556195498,600,0.679666698,600,0.2479918003,600,0.2577462792,600,0.1671231538,
599,2.377929926,599,0.6711069942,599,0.2454442978,599,0.2574036419,599,0.1645501554,
598,2.27626276,598,0.6666087508,598,0.2410686612,598,0.2560526729,598,0.1659266055,
597,2.297026157,597,0.669662118,597,0.2358350605,597,0.2562047541,597,0.1628552228,
596,2.421658516,596,0.6848121285,596,0.2303889245,596,0.2573328018,596,0.1650207043,
595,2.634204626,595,0.6838392019,595,0.2311007977,595,0.259349525,595,0.1635384113,
594,2.642556906,594,0.6830736995,594,0.2268117368,594,0.2606185675,594,0.1645914763,
593,2.635601044,593,0.673791647,593,0.2242256701,593,0.2587668002,593,0.1665850282,
592,2.492412567,592,0.6667970419,592,0.2221879065,592,0.2553343475,592,0.1645775288,
591,2.35863018,591,0.6690027714,591,0.2211245298,591,0.2537056506,591,0.1623215079,
590,2.404938936,590,0.6757878661,590,0.2163998038,590,0.2520580888,590,0.1622299254,
589,2.522130966,589,0.6827168465,589,0.2120010555,589,0.2539741099,589,0.162824586,
588,2.780874014,588,0.6818702817,588,0.2096320689,588,0.2579478323,588,0.1611129493,
587,2.788500786,587,0.67894876,587,0.2045713812,587,0.2571415603,587,0.1625641882,
586,2.774487734,586,0.6748231053,586,0.2039628327,586,0.2527841032,586,0.158803314,
585,2.662250519,585,0.6611699462,585,0.2016837448,585,0.249348253,585,0.1592192501,
584,2.499330044,584,0.6515709758,584,0.1976825744,584,0.2496946603,584,0.1589825004,
583,2.512615681,583,0.6571842432,583,0.1917825341,583,0.2482196838,583,0.1574524939,
582,2.622129679,582,0.666642487,582,0.1908311993,582,0.2440759838,582,0.1542286724,
581,2.878541231,581,0.6669535041,581,0.1891824603,581,0.2500657141,581,0.1556884795,
580,2.885017872,580,0.6667890549,580,0.1825284511,580,0.2453584671,580,0.1548289955,
579,2.88167882,579,0.6524032354,579,0.1842280328,579,0.2455786169,579,0.1537867934,
578,2.738198757,578,0.6375478506,578,0.1796467751,578,0.2387815416,578,0.1531732827,
577,2.535741329,577,0.6293014288,577,0.1740212888,577,0.2421206832,577,0.1512062103,
576,2.555893183,576,0.6394988298,576,0.1684817374,576,0.2385202497,576,0.1525452137,
575,2.636983156,575,0.6450129151,575,0.1662299335,575,0.2412607372,575,0.1498727053,
574,2.917991877,574,0.6401807666,574,0.1650551856,574,0.2470999956,574,0.1533762366,
573,2.932999372,573,0.6389876008,573,0.1609666795,573,0.2427483946,573,0.1502234489,
572,2.899387121,572,0.632864058,572,0.1561695337,572,0.2405715883,572,0.1520935744,
571,2.805315256,571,0.6123085022,571,0.1556628048,571,0.2395499945,571,0.1481918246,
570,2.605231285,570,0.6189536452,570,0.1526798308,570,0.2343388051,570,0.1469445229,
569,2.943153381,569,0.6359582543,569,0.1523298621,569,0.2375600934,569,0.1511961818,
568,2.95272994,568,0.6126180291,568,0.1483726948,568,0.2382301539,568,0.1484246403,
567,2.706513643,567,0.6182820201,567,0.1443186849,567,0.2362190336,567,0.1464891136,
566,2.684785366,566,0.6130737662,566,0.1456789374,566,0.2364522964,566,0.1446048468,
565,2.73805356,565,0.6284356117,565,0.1387618929,565,0.2372122109,565,0.1487990171,
564,2.966586113,564,0.6341139078,564,0.138839379,564,0.2380600274,564,0.1461094767,
563,3.075480938,563,0.6310608983,563,0.1332787871,563,0.2439049482,563,0.1478980035,
562,3.065856695,562,0.6345433593,562,0.1357034892,562,0.2447766662,562,0.1508331448,
561,3.065819025,561,0.622574091,561,0.1352815032,561,0.2405038327,561,0.1513520777,
560,2.872232199,560,0.6190537214,560,0.1325106621,560,0.2393912077,560,0.1475216299,
559,2.844953537,559,0.630346477,559,0.1338135749,559,0.239732936,559,0.1521200538,
558,2.902372599,558,0.6466475129,558,0.1319929808,558,0.240527913,558,0.1513957232,
557,3.098125696,557,0.6572341323,557,0.136263743,557,0.2513391376,557,0.1532274187,
556,3.199847698,556,0.6621719599,556,0.1313252896,556,0.2481403798,556,0.15527457,
555,3.195619583,555,0.653750658,555,0.1299595088,555,0.256876111,555,0.1544195563,
554,3.208605289,554,0.6489289999,554,0.1339721829,554,0.2547239065,554,0.1564286351,
553,2.950403214,553,0.6463845372,553,0.1329935789,553,0.2561336756,553,0.1552757621,
552,2.931955099,552,0.6488681436,552,0.1327973604,552,0.256218642,552,0.1578763127,
551,2.960639,551,0.6754058599,551,0.1334782541,551,0.2569389641,551,0.1518859714,
550,3.013742447,550,0.6836217642,550,0.1320038289,550,0.2612140477,550,0.1601742506,
549,3.410029411,549,0.6901361942,549,0.1335096359,549,0.2626833618,549,0.1607896388,
548,3.41855669,548,0.6914460063,548,0.1319517046,548,0.2669803798,548,0.1625914723,
547,3.431864023,547,0.671426177,547,0.1330850124,547,0.2623486817,547,0.1649252176,
546,3.190063238,546,0.6689584255,546,0.1324720383,546,0.2666439712,546,0.1682770252,
545,3.023105383,545,0.6788443923,545,0.1376374811,545,0.2681675255,545,0.160168305,
544,3.018761158,544,0.7008023262,544,0.1352223754,544,0.2692689002,544,0.1639929265,
543,3.384424686,543,0.7007013559,543,0.1342440099,543,0.2743279934,543,0.1682579219,
542,3.766943932,542,0.714782238,542,0.1363196373,542,0.279481858,542,0.1665752679,
541,3.807046175,541,0.7101399302,541,0.1349464357,541,0.2805938125,541,0.1717073619,
540,3.786656618,540,0.7085444331,540,0.1365816444,540,0.2784130871,540,0.1702623516,
539,3.528143883,539,0.7049795985,539,0.1336685717,539,0.2795204222,539,0.1705348492,
538,3.395128727,538,0.7100321054,538,0.1381125599,538,0.2754856646,538,0.1677498072,
537,3.433652163,537,0.7182602286,537,0.1354084313,537,0.2823030353,537,0.1727323234,
536,3.627058983,536,0.7334792018,536,0.1390772462,536,0.2924369872,536,0.1761869788,
535,3.958928108,535,0.7426705956,535,0.1383410245,535,0.2850864828,535,0.1782267392,
534,3.984783173,534,0.7406938076,534,0.141109392,534,0.289114207,534,0.1762573719,
533,3.964785099,533,0.7240685821,533,0.1417371631,533,0.2863402069,533,0.1783219278,
532,3.715398788,532,0.7367714643,532,0.1446647644,532,0.2832711339,532,0.1764316261,
531,3.54928112,531,0.7322062254,531,0.1441543102,531,0.2890536785,531,0.1779643893,
530,3.566236734,530,0.7469674349,530,0.139430657,530,0.296105057,530,0.1787071079,
529,3.754863501,529,0.753673315,529,0.1437569857,529,0.2958576977,529,0.1796792001,
528,4.130406857,528,0.760684371,528,0.1440227777,528,0.301704675,528,0.1778317094,
527,4.13747263,527,0.7643951178,527,0.1433271915,527,0.2969997525,527,0.1807446033,
526,4.082827568,526,0.756092906,526,0.1433874667,526,0.2996008396,526,0.1852421165,
525,3.891428471,525,0.7472054362,525,0.1430338025,525,0.2964236438,525,0.1821107417,
524,3.661334991,524,0.7483381629,524,0.1452632546,524,0.2974562943,524,0.1841813475,
523,3.660485506,523,0.7582688332,523,0.1421872824,523,0.298037529,523,0.1808385402,
522,3.837406635,522,0.7753496766,522,0.1437929273,522,0.2996526361,522,0.1823049784,
521,4.244792461,521,0.7730528712,521,0.1462801397,521,0.3062582314,521,0.1855976433,
520,4.228536606,520,0.7786599994,520,0.1455645263,520,0.3060826659,520,0.18527551,
519,4.212137222,519,0.7727895975,519,0.1478880346,519,0.3080638945,519,0.1869723201,
518,4.027662754,518,0.7575370073,518,0.1426625699,518,0.2991746068,518,0.1844313592,
517,3.7332232,517,0.7662234306,517,0.1455246359,517,0.3014011383,517,0.1851436496,
516,3.752837658,516,0.7712281942,516,0.1451462209,516,0.3023226261,516,0.1872670054,
515,3.890118122,515,0.7924312949,515,0.1462920308,515,0.3026608527,515,0.1861110479,
514,4.291036129,514,0.7951347828,514,0.1462472379,514,0.314981699,514,0.1854172349,
513,4.302284718,513,0.7926775813,513,0.1481100768,513,0.3095139265,513,0.1896496713,
512,4.302221298,512,0.78732723,512,0.1473881155,512,0.3097864687,512,0.1875252575,
511,4.106124401,511,0.7792208791,511,0.1495811939,511,0.3038492501,511,0.1877909154,
510,3.787032127,510,0.7698253393,510,0.1484374255,510,0.3050591946,510,0.1896242797,
509,3.809838772,509,0.784404099,509,0.1467816234,509,0.3124328852,509,0.1857639998,
508,3.922858715,508,0.801123023,508,0.1490621716,508,0.3080415428,508,0.1900884658,
507,4.304582596,507,0.8021711111,507,0.1490561366,507,0.315567106,507,0.1864418685,
506,4.385538578,506,0.8017932177,506,0.1481107175,506,0.3096831441,506,0.1914862394,
505,4.34717989,505,0.7978057265,505,0.1489539146,505,0.3117258251,505,0.1899643093,
504,4.192630768,504,0.7858541608,504,0.1505175084,504,0.3136373758,504,0.1896567196,
503,3.809152842,503,0.7826844454,503,0.148318693,503,0.3120039403,503,0.1924930364,
502,3.854034185,502,0.782071352,502,0.1479444951,502,0.3118943274,502,0.1902602911,
501,3.948831558,501,0.8089822531,501,0.1496320963,501,0.3150769174,501,0.1908492744,
500,4.316520214,500,0.8111429214,500,0.1475357264,500,0.3193643689,500,0.1927525699,
499,4.415652752,499,0.8090872169,499,0.1470231265,499,0.3129811883,499,0.1922481507,
498,4.396427155,498,0.8063187003,498,0.1518975347,498,0.313662231,498,0.1905447394,
497,4.244178772,497,0.7826813459,497,0.1510912776,497,0.3112606704,497,0.1947610825,
496,3.868496895,496,0.7896405458,496,0.1497436464,496,0.3128141761,496,0.1900428981,
495,3.869376421,495,0.7916879058,495,0.1512794197,495,0.3181055784,495,0.1924897134,
494,3.962636471,494,0.8100368977,494,0.1524424851,494,0.3168612719,494,0.1894144416,
493,4.308051109,493,0.8089149594,493,0.1511091292,493,0.3134128749,493,0.1948617697,
492,4.414429665,492,0.8150649071,492,0.1472403109,492,0.3155837953,492,0.1904107183,
491,4.416340351,491,0.8032881021,491,0.1499583423,491,0.3163582683,491,0.194477424,
490,4.28168869,490,0.7858814001,490,0.150875181,490,0.3188150227,490,0.1890131682,
489,3.894768,489,0.795301497,489,0.1507899016,489,0.3165152371,489,0.1923213899,
488,3.888315678,488,0.7983864546,488,0.1491178721,488,0.3167102635,488,0.1907236725,
487,3.936362267,487,0.8133701086,487,0.1499401033,487,0.3151630163,487,0.1906545311,
486,4.292136192,486,0.816368103,486,0.1473838985,486,0.3197126389,486,0.1900856644,
485,4.435526371,485,0.8130294085,485,0.1476137936,485,0.3189162612,485,0.1928709894,
484,4.406519413,484,0.8067290187,484,0.1510145962,484,0.3150136769,484,0.195351854,
483,4.300655365,483,0.7915548086,483,0.1511511356,483,0.3110781908,483,0.1925390959,
482,3.904979706,482,0.7959784865,482,0.1482074559,482,0.310773313,482,0.1917536706,
481,3.888957262,481,0.7926183939,481,0.1477248222,481,0.3136191666,481,0.1918066889,
480,3.926935434,480,0.803080678,480,0.1456408352,480,0.3169282973,480,0.1940848231,
479,4.23792696,479,0.8106652498,479,0.1494299918,479,0.3168832362,479,0.1921613067,
478,4.432428837,478,0.815128088,478,0.1476627737,478,0.3187251985,478,0.194990173,
477,4.417189598,477,0.8131585121,477,0.1478303671,477,0.3183729351,477,0.1943245828,
476,4.316153049,476,0.784719348,476,0.1468954682,476,0.311039865,476,0.1908708513,
475,3.987026691,475,0.7862042785,475,0.1489768177,475,0.3173389435,475,0.1903482378,
474,3.892682552,474,0.7971336246,474,0.1499733329,474,0.3155255318,474,0.1881438494,
473,3.91535306,473,0.8039580584,473,0.1454874575,473,0.3181538582,473,0.1953747571,
472,4.207244873,472,0.80580616,472,0.1480900496,472,0.3215042055,472,0.1956041008,
471,4.413041592,471,0.8004630804,471,0.146336928,471,0.3241036236,471,0.1966558099,
470,4.387213707,470,0.7895390391,470,0.1489552855,470,0.3212881684,470,0.191691488,
469,4.31421566,469,0.766777277,469,0.1499541998,469,0.3205352724,469,0.1967631727,
468,3.970685482,468,0.7645338178,468,0.150737673,468,0.3165503442,468,0.1930070817,
467,3.64577055,467,0.7569587827,467,0.1480149627,467,0.3185835183,467,0.1926307827,
466,3.864052057,466,0.7690364718,466,0.1485111117,466,0.3227294087,466,0.1935244352,
465,4.099187374,465,0.7751645446,465,0.1458975077,465,0.3214343488,465,0.1903514266,
464,4.366053104,464,0.7617416978,464,0.1460664272,464,0.3216186166,464,0.1946913004,
463,4.355830193,463,0.7551481724,463,0.1460455656,463,0.3254652619,463,0.1964078248,
462,4.288078308,462,0.7389768362,462,0.1478926986,462,0.3176605105,462,0.1933779269,
461,3.957963705,461,0.7238228917,461,0.1476025879,461,0.3143562078,461,0.1927842349,
460,3.43400526,460,0.7248906493,460,0.1496773958,460,0.3160454631,460,0.1914599836,
459,3.822211266,459,0.7430556417,459,0.1479557902,459,0.3192959428,459,0.1950035095,
458,4.053814411,458,0.7551276088,458,0.147731185,458,0.3220239282,458,0.1911795735,
457,4.317135334,457,0.7389552593,457,0.1477298737,457,0.3188017607,457,0.1936852634,
456,4.313827515,456,0.7445408702,456,0.1480760276,456,0.3204218149,456,0.1980508417,
455,4.273511887,455,0.7345361114,455,0.143476814,455,0.3199777603,455,0.1957199275,
454,3.978222132,454,0.7246797681,454,0.1456698626,454,0.3169082403,454,0.1948167235,
453,3.787606239,453,0.7310578823,453,0.145081237,453,0.3165039122,453,0.1900464743,
452,3.811489105,452,0.7489475608,452,0.1471663117,452,0.3130876124,452,0.1928720027,
451,4.002505302,451,0.768456161,451,0.147216782,451,0.3161388338,451,0.1915059686,
450,4.340230465,450,0.7650359869,450,0.1424203068,450,0.319478631,450,0.1929121017,
449,4.326214314,449,0.7703137398,449,0.1434209943,449,0.3165248632,449,0.191980198,
448,4.265726566,448,0.7551984787,448,0.1443161219,448,0.3173135817,448,0.1944179088,
447,4.014246464,447,0.7495170236,447,0.1462313533,447,0.3081356585,447,0.1946294606,
446,3.753099918,446,0.7516058683,446,0.1456269473,446,0.3128815293,446,0.196023941,
445,3.79152751,445,0.7573575377,445,0.1450506449,445,0.3122273982,445,0.190491125,
444,3.958347797,444,0.7803025246,444,0.1453850716,444,0.3143873215,444,0.1921189576,
443,4.306857586,443,0.7821747065,443,0.1487721652,443,0.320040673,443,0.1939834952,
442,4.298508644,442,0.7823041677,442,0.1460517347,442,0.3186529875,442,0.1928018183,
441,4.236385822,441,0.7664445043,441,0.1415382922,441,0.3175081015,441,0.1935890913,
440,3.98814559,440,0.7552573681,440,0.144433707,440,0.313878417,440,0.191670835,
439,3.728627682,439,0.7553701997,439,0.1443147063,439,0.3147612214,439,0.1930784285,
438,3.752485275,438,0.7598978281,438,0.1446004063,438,0.3138094246,438,0.190816313,
437,3.904134512,437,0.7770508528,437,0.1451587826,437,0.315195173,437,0.1887233704,
436,4.228724003,436,0.7814094424,436,0.1411152035,436,0.3127313554,436,0.1908213496,
435,4.244383335,435,0.7678191066,435,0.1417145878,435,0.3164551556,435,0.1910931021,
434,4.185874939,434,0.7605886459,434,0.1416285485,434,0.3173057139,434,0.1942736208,
433,3.984605789,433,0.736500144,433,0.1397727728,433,0.3143915534,433,0.1891225427,
432,3.687353134,432,0.7422693372,432,0.1441752315,432,0.3156124949,432,0.188745141,
431,3.570598841,431,0.7480493784,431,0.1426300555,431,0.3166797459,431,0.188025251,
430,3.836669445,430,0.7650793195,430,0.1418443918,430,0.3127907515,430,0.1870274544,
429,4.170310497,429,0.7592850327,429,0.1402411759,429,0.3175967634,429,0.1895503551,
428,4.200740337,428,0.7408145666,428,0.1450521797,428,0.3133835196,428,0.193273142,
427,4.12693882,427,0.714979887,427,0.1438444853,427,0.3169362545,427,0.1922677308,
426,3.923050404,426,0.6896173954,426,0.1403030306,426,0.3115029633,426,0.1910472512,
425,3.602445841,425,0.6753310561,425,0.1410541087,425,0.309505254,425,0.1890566498,
424,3.349192142,424,0.6607365608,424,0.1392062753,424,0.3148975968,424,0.1905281544,
423,3.70793891,423,0.6729966402,423,0.1397373825,423,0.3080489337,423,0.1889945418,
422,4.046247005,422,0.6646111608,422,0.1401230693,422,0.3157737255,422,0.194463864,
421,4.10860157,421,0.6602839828,421,0.1409437507,421,0.3157791197,421,0.1882171482,
420,4.061229229,420,0.6510967016,420,0.144013986,420,0.3171990514,420,0.193192631,
419,3.93374896,419,0.6273120046,419,0.137072131,419,0.3115818501,419,0.1943126023,
418,3.253975153,418,0.6331010461,418,0.1403155923,418,0.3098751009,418,0.1887066215,
417,3.520018339,417,0.6448342204,417,0.1369735748,417,0.3124144971,417,0.1846209615,
416,3.521111965,416,0.6508720517,416,0.1393513829,416,0.3144631088,416,0.1835377663,
415,4.037463188,415,0.6517058015,415,0.1416136175,415,0.3199402392,415,0.186351493,
414,4.121147633,414,0.6457275748,414,0.1383952051,414,0.3141744733,414,0.1929287761,
413,4.089616776,413,0.6387449503,413,0.1416880339,413,0.3145247996,413,0.1916311979,
412,3.946344614,412,0.6306404471,412,0.1425634027,412,0.3086450696,412,0.1908373386,
411,3.49617815,411,0.6292188764,411,0.1380933672,411,0.3117642701,411,0.1905204654,
410,3.601078749,410,0.6353434324,410,0.1370800287,410,0.3113104403,410,0.1873881072,
409,3.497419596,409,0.6388084292,409,0.1366771311,409,0.3092648387,409,0.1900092065,
408,3.968323469,408,0.6468152404,408,0.1389609873,408,0.3166124821,408,0.1921743751,
407,4.09147501,407,0.6296492815,407,0.1354738772,407,0.3188126385,407,0.1866167337,
406,4.056054115,406,0.6277199388,406,0.1376460791,406,0.3135475218,406,0.1867249906,
405,3.922592402,405,0.6151911616,405,0.1417980492,405,0.3037099838,405,0.1868807375,
404,3.578581572,404,0.6176189184,404,0.1329283863,404,0.3083774447,404,0.182895124,
403,3.585802317,403,0.6164079309,403,0.1375273168,403,0.3064583242,403,0.1887850016,
402,3.438085318,402,0.6240786314,402,0.1388902664,402,0.3139399588,402,0.1855974346,
401,3.760645628,401,0.6247401237,401,0.1351292133,401,0.3068270385,401,0.1846277267,
400,4.03613472,400,0.6155340672,400,0.1350795925,400,0.3126070201,400,0.1852180362,

Hole,
Hole
Collection Time: 21/11/2023 2:34:38 PM
Operator Name  :
Scan Software Version: 4.10(464)
Parameter List :
Instrument                        Cary 5000
Instrument Version                1.12
Start (nm)                        1800.00
Stop (nm)                         400.00
X Mode                            Nanometers
Y Mode                            %T
Independent NIR                   On
Measurement Mode                  Fixed SBW
UV-Vis Scan Rate (nm/min)         600.000
UV-Vis Data Interval (nm)         1.00
UV-Vis Ave. Time (sec)            0.100
UV-Vis SBW (nm)                   1.000
NIR Scan Rate (nm/min)            1800.000
NIR Data Interval (nm)            3.00
NIR Ave. Time (sec)               0.100
NIR SBW (nm)                      3.000
Slit Height                       Full
Beam Mode                         Double
Signal-to-noise Mode              Off
UV Source                         On
Vis Source                        On
Third Source                      Off
Source Changeover (nm)            350.00
Detector Changeover (nm)          800.00
Grating Changeover (nm)           800.00
Baseline Correction               Off
Cycle Mode                        Off
Comments
Method Log     :
Method Name    :
Date/Time stamp: 21/11/2023 1:55:44 PM
Method Modifications:
X Start nm Changed: 21/11/2023 1:56:38 PM, Old: 800.00, New:1800.00
X Stop nm Changed: 21/11/2023 1:56:38 PM, Old: 200.00, New: 400.00
Y mode Changed: 21/11/2023 1:56:38 PM, Old:Abs, New:%T
Storage Changed: 21/11/2023 1:56:38 PM, Old:1, New:0
Saved as C:\users\Janek_Suffczynski\Leon_thiophosphates\2023-11-21\d002_10K.BSW
UVVIS SAT Changed: 21/11/2023 2:19:03 PM, Old: 0.100, New: 1.000
NIR SAT Changed: 21/11/2023 2:19:03 PM, Old: 0.100, New: 1.000
Common SAT Changed: 21/11/2023 2:19:03 PM, Old: 0.100, New: 1.000
SBW Changed: 21/11/2023 2:19:17 PM, Old:2.000, New:1.000
NIR slit width Changed: 21/11/2023 2:19:17 PM, Old:2.000, New:1.000
Common Slit Width Changed: 21/11/2023 2:19:17 PM, Old:2.000, New:1.000
UVVIS SAT Changed: 21/11/2023 2:24:01 PM, Old: 1.000, New: 0.500
NIR SAT Changed: 21/11/2023 2:24:01 PM, Old: 1.000, New: 0.500
Common SAT Changed: 21/11/2023 2:24:01 PM, Old: 1.000, New: 0.500
Measurement Mode Changed: 21/11/2023 2:26:23 PM, Old:0, New:1
Idpt Control Changed: 21/11/2023 2:26:23 PM, Old:0, New:1
NIR Scan Rate nm Changed: 21/11/2023 2:26:23 PM, Old:  600.000, New:  240.000
NIR Interval nm Changed: 21/11/2023 2:26:23 PM, Old:     1.00, New:     2.00
Beam mode Changed: 21/11/2023 2:26:23 PM, Old:Double auto select, New:Double fixed slit
Measurement Mode Changed: 21/11/2023 2:28:18 PM, Old:1, New:0
Beam mode Changed: 21/11/2023 2:28:18 PM, Old:Double fixed slit, New:Double auto select
Measurement Mode Changed: 21/11/2023 2:29:51 PM, Old:0, New:1
NIR Scan Rate nm Changed: 21/11/2023 2:29:51 PM, Old:  240.000, New:  360.000
NIR Interval nm Changed: 21/11/2023 2:29:51 PM, Old:     2.00, New:     3.00
NIR SBW (nm) Changed: 21/11/2023 2:29:51 PM, Old:1.000, New:3.000
Beam mode Changed: 21/11/2023 2:29:51 PM, Old:Double auto select, New:Double fixed slit
UVVIS SAT Changed: 21/11/2023 2:34:22 PM, Old: 0.500, New: 0.100
NIR SAT Changed: 21/11/2023 2:34:26 PM, Old: 0.500, New: 0.100
NIR Scan Rate nm Changed: 21/11/2023 2:34:28 PM, Old:  360.000, New: 1800.000
End Method Modifications
<NIR SBW (nm)> , 3.000
<UVVIS SBW (nm)> , 1.000
<Energy> , 416.87
<Slit height> , Full
<Current Wavelength> , 400.00

MnPS3,
MnPS4
Collection Time: 21/11/2023 2:36:48 PM
Operator Name  :
Scan Software Version: 4.10(464)
Parameter List :
Instrument                        Cary 5000
Instrument Version                1.12
Start (nm)                        1800.00
Stop (nm)                         400.00
X Mode                            Nanometers
Y Mode                            %T
Independent NIR                   On
Measurement Mode                  Fixed SBW
UV-Vis Scan Rate (nm/min)         600.000
UV-Vis Data Interval (nm)         1.00
UV-Vis Ave. Time (sec)            0.100
UV-Vis SBW (nm)                   1.000
NIR Scan Rate (nm/min)            1800.000
NIR Data Interval (nm)            3.00
NIR Ave. Time (sec)               0.100
NIR SBW (nm)                      3.000
Slit Height                       Full
Beam Mode                         Double
Signal-to-noise Mode              Off
UV Source                         On
Vis Source                        On
Third Source                      Off
Source Changeover (nm)            350.00
Detector Changeover (nm)          800.00
Grating Changeover (nm)           800.00
Baseline Correction               Off
Cycle Mode                        Off
Comments
Method Log     :
Method Name    :
Date/Time stamp: 21/11/2023 1:55:44 PM
Method Modifications:
X Start nm Changed: 21/11/2023 1:56:38 PM, Old: 800.00, New:1800.00
X Stop nm Changed: 21/11/2023 1:56:38 PM, Old: 200.00, New: 400.00
Y mode Changed: 21/11/2023 1:56:38 PM, Old:Abs, New:%T
Storage Changed: 21/11/2023 1:56:38 PM, Old:1, New:0
Saved as C:\users\Janek_Suffczynski\Leon_thiophosphates\2023-11-21\d002_10K.BSW
UVVIS SAT Changed: 21/11/2023 2:19:03 PM, Old: 0.100, New: 1.000
NIR SAT Changed: 21/11/2023 2:19:03 PM, Old: 0.100, New: 1.000
Common SAT Changed: 21/11/2023 2:19:03 PM, Old: 0.100, New: 1.000
SBW Changed: 21/11/2023 2:19:17 PM, Old:2.000, New:1.000
NIR slit width Changed: 21/11/2023 2:19:17 PM, Old:2.000, New:1.000
Common Slit Width Changed: 21/11/2023 2:19:17 PM, Old:2.000, New:1.000
UVVIS SAT Changed: 21/11/2023 2:24:01 PM, Old: 1.000, New: 0.500
NIR SAT Changed: 21/11/2023 2:24:01 PM, Old: 1.000, New: 0.500
Common SAT Changed: 21/11/2023 2:24:01 PM, Old: 1.000, New: 0.500
Measurement Mode Changed: 21/11/2023 2:26:23 PM, Old:0, New:1
Idpt Control Changed: 21/11/2023 2:26:23 PM, Old:0, New:1
NIR Scan Rate nm Changed: 21/11/2023 2:26:23 PM, Old:  600.000, New:  240.000
NIR Interval nm Changed: 21/11/2023 2:26:23 PM, Old:     1.00, New:     2.00
Beam mode Changed: 21/11/2023 2:26:23 PM, Old:Double auto select, New:Double fixed slit
Measurement Mode Changed: 21/11/2023 2:28:18 PM, Old:1, New:0
Beam mode Changed: 21/11/2023 2:28:18 PM, Old:Double fixed slit, New:Double auto select
Measurement Mode Changed: 21/11/2023 2:29:51 PM, Old:0, New:1
NIR Scan Rate nm Changed: 21/11/2023 2:29:51 PM, Old:  240.000, New:  360.000
NIR Interval nm Changed: 21/11/2023 2:29:51 PM, Old:     2.00, New:     3.00
NIR SBW (nm) Changed: 21/11/2023 2:29:51 PM, Old:1.000, New:3.000
Beam mode Changed: 21/11/2023 2:29:51 PM, Old:Double auto select, New:Double fixed slit
UVVIS SAT Changed: 21/11/2023 2:34:22 PM, Old: 0.500, New: 0.100
NIR SAT Changed: 21/11/2023 2:34:26 PM, Old: 0.500, New: 0.100
NIR Scan Rate nm Changed: 21/11/2023 2:34:28 PM, Old:  360.000, New: 1800.000
End Method Modifications
<NIR SBW (nm)> , 3.000
<UVVIS SBW (nm)> , 1.000
<Energy> , 416.87
<Slit height> , Full
<Current Wavelength> , 400.00
Continuum name changed to 'MnPS3'

FePS3,
FePS3
Collection Time: 21/11/2023 2:38:57 PM
Operator Name  :
Scan Software Version: 4.10(464)
Parameter List :
Instrument                        Cary 5000
Instrument Version                1.12
Start (nm)                        1800.00
Stop (nm)                         400.00
X Mode                            Nanometers
Y Mode                            %T
Independent NIR                   On
Measurement Mode                  Fixed SBW
UV-Vis Scan Rate (nm/min)         600.000
UV-Vis Data Interval (nm)         1.00
UV-Vis Ave. Time (sec)            0.100
UV-Vis SBW (nm)                   1.000
NIR Scan Rate (nm/min)            1800.000
NIR Data Interval (nm)            3.00
NIR Ave. Time (sec)               0.100
NIR SBW (nm)                      3.000
Slit Height                       Full
Beam Mode                         Double
Signal-to-noise Mode              Off
UV Source                         On
Vis Source                        On
Third Source                      Off
Source Changeover (nm)            350.00
Detector Changeover (nm)          800.00
Grating Changeover (nm)           800.00
Baseline Correction               Off
Cycle Mode                        Off
Comments
Method Log     :
Method Name    :
Date/Time stamp: 21/11/2023 1:55:44 PM
Method Modifications:
X Start nm Changed: 21/11/2023 1:56:38 PM, Old: 800.00, New:1800.00
X Stop nm Changed: 21/11/2023 1:56:38 PM, Old: 200.00, New: 400.00
Y mode Changed: 21/11/2023 1:56:38 PM, Old:Abs, New:%T
Storage Changed: 21/11/2023 1:56:38 PM, Old:1, New:0
Saved as C:\users\Janek_Suffczynski\Leon_thiophosphates\2023-11-21\d002_10K.BSW
UVVIS SAT Changed: 21/11/2023 2:19:03 PM, Old: 0.100, New: 1.000
NIR SAT Changed: 21/11/2023 2:19:03 PM, Old: 0.100, New: 1.000
Common SAT Changed: 21/11/2023 2:19:03 PM, Old: 0.100, New: 1.000
SBW Changed: 21/11/2023 2:19:17 PM, Old:2.000, New:1.000
NIR slit width Changed: 21/11/2023 2:19:17 PM, Old:2.000, New:1.000
Common Slit Width Changed: 21/11/2023 2:19:17 PM, Old:2.000, New:1.000
UVVIS SAT Changed: 21/11/2023 2:24:01 PM, Old: 1.000, New: 0.500
NIR SAT Changed: 21/11/2023 2:24:01 PM, Old: 1.000, New: 0.500
Common SAT Changed: 21/11/2023 2:24:01 PM, Old: 1.000, New: 0.500
Measurement Mode Changed: 21/11/2023 2:26:23 PM, Old:0, New:1
Idpt Control Changed: 21/11/2023 2:26:23 PM, Old:0, New:1
NIR Scan Rate nm Changed: 21/11/2023 2:26:23 PM, Old:  600.000, New:  240.000
NIR Interval nm Changed: 21/11/2023 2:26:23 PM, Old:     1.00, New:     2.00
Beam mode Changed: 21/11/2023 2:26:23 PM, Old:Double auto select, New:Double fixed slit
Measurement Mode Changed: 21/11/2023 2:28:18 PM, Old:1, New:0
Beam mode Changed: 21/11/2023 2:28:18 PM, Old:Double fixed slit, New:Double auto select
Measurement Mode Changed: 21/11/2023 2:29:51 PM, Old:0, New:1
NIR Scan Rate nm Changed: 21/11/2023 2:29:51 PM, Old:  240.000, New:  360.000
NIR Interval nm Changed: 21/11/2023 2:29:51 PM, Old:     2.00, New:     3.00
NIR SBW (nm) Changed: 21/11/2023 2:29:51 PM, Old:1.000, New:3.000
Beam mode Changed: 21/11/2023 2:29:51 PM, Old:Double auto select, New:Double fixed slit
UVVIS SAT Changed: 21/11/2023 2:34:22 PM, Old: 0.500, New: 0.100
NIR SAT Changed: 21/11/2023 2:34:26 PM, Old: 0.500, New: 0.100
NIR Scan Rate nm Changed: 21/11/2023 2:34:28 PM, Old:  360.000, New: 1800.000
End Method Modifications
<NIR SBW (nm)> , 3.000
<UVVIS SBW (nm)> , 1.000
<Energy> , 416.87
<Slit height> , Full
<Current Wavelength> , 400.00

NiPS3,
NiPS3
Collection Time: 21/11/2023 2:41:05 PM
Operator Name  :
Scan Software Version: 4.10(464)
Parameter List :
Instrument                        Cary 5000
Instrument Version                1.12
Start (nm)                        1800.00
Stop (nm)                         400.00
X Mode                            Nanometers
Y Mode                            %T
Independent NIR                   On
Measurement Mode                  Fixed SBW
UV-Vis Scan Rate (nm/min)         600.000
UV-Vis Data Interval (nm)         1.00
UV-Vis Ave. Time (sec)            0.100
UV-Vis SBW (nm)                   1.000
NIR Scan Rate (nm/min)            1800.000
NIR Data Interval (nm)            3.00
NIR Ave. Time (sec)               0.100
NIR SBW (nm)                      3.000
Slit Height                       Full
Beam Mode                         Double
Signal-to-noise Mode              Off
UV Source                         On
Vis Source                        On
Third Source                      Off
Source Changeover (nm)            350.00
Detector Changeover (nm)          800.00
Grating Changeover (nm)           800.00
Baseline Correction               Off
Cycle Mode                        Off
Comments
Method Log     :
Method Name    :
Date/Time stamp: 21/11/2023 1:55:44 PM
Method Modifications:
X Start nm Changed: 21/11/2023 1:56:38 PM, Old: 800.00, New:1800.00
X Stop nm Changed: 21/11/2023 1:56:38 PM, Old: 200.00, New: 400.00
Y mode Changed: 21/11/2023 1:56:38 PM, Old:Abs, New:%T
Storage Changed: 21/11/2023 1:56:38 PM, Old:1, New:0
Saved as C:\users\Janek_Suffczynski\Leon_thiophosphates\2023-11-21\d002_10K.BSW
UVVIS SAT Changed: 21/11/2023 2:19:03 PM, Old: 0.100, New: 1.000
NIR SAT Changed: 21/11/2023 2:19:03 PM, Old: 0.100, New: 1.000
Common SAT Changed: 21/11/2023 2:19:03 PM, Old: 0.100, New: 1.000
SBW Changed: 21/11/2023 2:19:17 PM, Old:2.000, New:1.000
NIR slit width Changed: 21/11/2023 2:19:17 PM, Old:2.000, New:1.000
Common Slit Width Changed: 21/11/2023 2:19:17 PM, Old:2.000, New:1.000
UVVIS SAT Changed: 21/11/2023 2:24:01 PM, Old: 1.000, New: 0.500
NIR SAT Changed: 21/11/2023 2:24:01 PM, Old: 1.000, New: 0.500
Common SAT Changed: 21/11/2023 2:24:01 PM, Old: 1.000, New: 0.500
Measurement Mode Changed: 21/11/2023 2:26:23 PM, Old:0, New:1
Idpt Control Changed: 21/11/2023 2:26:23 PM, Old:0, New:1
NIR Scan Rate nm Changed: 21/11/2023 2:26:23 PM, Old:  600.000, New:  240.000
NIR Interval nm Changed: 21/11/2023 2:26:23 PM, Old:     1.00, New:     2.00
Beam mode Changed: 21/11/2023 2:26:23 PM, Old:Double auto select, New:Double fixed slit
Measurement Mode Changed: 21/11/2023 2:28:18 PM, Old:1, New:0
Beam mode Changed: 21/11/2023 2:28:18 PM, Old:Double fixed slit, New:Double auto select
Measurement Mode Changed: 21/11/2023 2:29:51 PM, Old:0, New:1
NIR Scan Rate nm Changed: 21/11/2023 2:29:51 PM, Old:  240.000, New:  360.000
NIR Interval nm Changed: 21/11/2023 2:29:51 PM, Old:     2.00, New:     3.00
NIR SBW (nm) Changed: 21/11/2023 2:29:51 PM, Old:1.000, New:3.000
Beam mode Changed: 21/11/2023 2:29:51 PM, Old:Double auto select, New:Double fixed slit
UVVIS SAT Changed: 21/11/2023 2:34:22 PM, Old: 0.500, New: 0.100
NIR SAT Changed: 21/11/2023 2:34:26 PM, Old: 0.500, New: 0.100
NIR Scan Rate nm Changed: 21/11/2023 2:34:28 PM, Old:  360.000, New: 1800.000
End Method Modifications
<NIR SBW (nm)> , 3.000
<UVVIS SBW (nm)> , 1.000
<Energy> , 416.87
<Slit height> , Full
<Current Wavelength> , 400.00

CrPS4,
CrPS4
Collection Time: 21/11/2023 2:43:46 PM
Operator Name  :
Scan Software Version: 4.10(464)
Parameter List :
Instrument                        Cary 5000
Instrument Version                1.12
Start (nm)                        1800.00
Stop (nm)                         400.00
X Mode                            Nanometers
Y Mode                            %T
Independent NIR                   On
Measurement Mode                  Fixed SBW
UV-Vis Scan Rate (nm/min)         600.000
UV-Vis Data Interval (nm)         1.00
UV-Vis Ave. Time (sec)            0.100
UV-Vis SBW (nm)                   1.000
NIR Scan Rate (nm/min)            1800.000
NIR Data Interval (nm)            3.00
NIR Ave. Time (sec)               0.100
NIR SBW (nm)                      3.000
Slit Height                       Full
Beam Mode                         Double
Signal-to-noise Mode              Off
UV Source                         On
Vis Source                        On
Third Source                      Off
Source Changeover (nm)            350.00
Detector Changeover (nm)          800.00
Grating Changeover (nm)           800.00
Baseline Correction               Off
Cycle Mode                        Off
Comments
Method Log     :
Method Name    :
Date/Time stamp: 21/11/2023 1:55:44 PM
Method Modifications:
X Start nm Changed: 21/11/2023 1:56:38 PM, Old: 800.00, New:1800.00
X Stop nm Changed: 21/11/2023 1:56:38 PM, Old: 200.00, New: 400.00
Y mode Changed: 21/11/2023 1:56:38 PM, Old:Abs, New:%T
Storage Changed: 21/11/2023 1:56:38 PM, Old:1, New:0
Saved as C:\users\Janek_Suffczynski\Leon_thiophosphates\2023-11-21\d002_10K.BSW
UVVIS SAT Changed: 21/11/2023 2:19:03 PM, Old: 0.100, New: 1.000
NIR SAT Changed: 21/11/2023 2:19:03 PM, Old: 0.100, New: 1.000
Common SAT Changed: 21/11/2023 2:19:03 PM, Old: 0.100, New: 1.000
SBW Changed: 21/11/2023 2:19:17 PM, Old:2.000, New:1.000
NIR slit width Changed: 21/11/2023 2:19:17 PM, Old:2.000, New:1.000
Common Slit Width Changed: 21/11/2023 2:19:17 PM, Old:2.000, New:1.000
UVVIS SAT Changed: 21/11/2023 2:24:01 PM, Old: 1.000, New: 0.500
NIR SAT Changed: 21/11/2023 2:24:01 PM, Old: 1.000, New: 0.500
Common SAT Changed: 21/11/2023 2:24:01 PM, Old: 1.000, New: 0.500
Measurement Mode Changed: 21/11/2023 2:26:23 PM, Old:0, New:1
Idpt Control Changed: 21/11/2023 2:26:23 PM, Old:0, New:1
NIR Scan Rate nm Changed: 21/11/2023 2:26:23 PM, Old:  600.000, New:  240.000
NIR Interval nm Changed: 21/11/2023 2:26:23 PM, Old:     1.00, New:     2.00
Beam mode Changed: 21/11/2023 2:26:23 PM, Old:Double auto select, New:Double fixed slit
Measurement Mode Changed: 21/11/2023 2:28:18 PM, Old:1, New:0
Beam mode Changed: 21/11/2023 2:28:18 PM, Old:Double fixed slit, New:Double auto select
Measurement Mode Changed: 21/11/2023 2:29:51 PM, Old:0, New:1
NIR Scan Rate nm Changed: 21/11/2023 2:29:51 PM, Old:  240.000, New:  360.000
NIR Interval nm Changed: 21/11/2023 2:29:51 PM, Old:     2.00, New:     3.00
NIR SBW (nm) Changed: 21/11/2023 2:29:51 PM, Old:1.000, New:3.000
Beam mode Changed: 21/11/2023 2:29:51 PM, Old:Double auto select, New:Double fixed slit
UVVIS SAT Changed: 21/11/2023 2:34:22 PM, Old: 0.500, New: 0.100
NIR SAT Changed: 21/11/2023 2:34:26 PM, Old: 0.500, New: 0.100
NIR Scan Rate nm Changed: 21/11/2023 2:34:28 PM, Old:  360.000, New: 1800.000
End Method Modifications
<NIR SBW (nm)> , 3.000
<UVVIS SBW (nm)> , 1.000
<Energy> , 416.87
<Slit height> , Full
<Current Wavelength> , 400.00

