Hole,,MnPS3,,CrPS4,,NiPS3,,FePS3,,
Wavelength (nm),%T,Wavelength (nm),%T,Wavelength (nm),%T,Wavelength (nm),%T,Wavelength (nm),%T,
2000,22.88717842,2000,2.499629021,2000,1.714446902,2000,5.086698532,2000,3.392979145,
1997,23.12229538,1997,2.45319128,1997,1.598278999,1997,5.101586342,1997,3.370075941,
1994,22.79998589,1994,2.499873161,1994,1.616522312,1994,5.122926235,1994,3.383134365,
1991,22.87382126,1991,2.515093803,1991,1.651605368,1991,5.229606152,1991,3.443393469,
1988,23.06795502,1988,2.512640953,1988,1.735250473,1988,5.282020092,1988,3.437688828,
1985,22.99238014,1985,2.56794858,1985,1.761240721,1985,5.221069813,1985,3.397954226,
1982,23.2173481,1982,2.511523008,1982,1.779962897,1982,5.227108479,1982,3.447672367,
1979,23.41033745,1979,2.518168926,1979,1.698765516,1979,5.210206509,1979,3.483434439,
1976,23.20710564,1976,2.571174622,1976,1.632736087,1976,5.200208187,1976,3.471206427,
1973,23.2787571,1973,2.616191149,1973,1.669415116,1973,5.298612118,1973,3.512747288,
1970,23.42584229,1970,2.677185059,1970,1.716274619,1970,5.33891964,1970,3.550447226,
1967,23.21185684,1967,2.735621929,1967,1.720706224,1967,5.363526344,1967,3.571460724,
1964,23.56006241,1964,2.73513937,1964,1.785376668,1964,5.405779839,1964,3.613581181,
1961,23.72360992,1961,2.714784861,1961,1.787644267,1961,5.385361195,1961,3.671695709,
1958,23.60414124,1958,2.697787285,1958,1.740877151,1958,5.20652914,1958,3.665886879,
1955,23.87097168,1955,2.68431592,1955,1.622327209,1955,5.313500881,1955,3.756850243,
1952,23.75385475,1952,2.639516354,1952,1.636972666,1952,5.28074646,1952,3.757652998,
1949,23.53381729,1949,2.671081543,1949,1.671995401,1949,5.303982258,1949,3.761481524,
1946,23.8779335,1946,2.637249708,1946,1.702750087,1946,5.47832346,1946,3.762681484,
1943,23.90387154,1943,2.644575834,1943,1.810963035,1943,5.405615807,1943,3.737704039,
1940,23.92239189,1940,2.598323584,1940,1.791087031,1940,5.31294775,1940,3.733352661,
1937,24.24578857,1937,2.573568106,1937,1.723199844,1937,5.282649517,1937,3.835632563,
1934,24.0289917,1934,2.527430773,1934,1.63577342,1934,5.267847061,1934,3.780762434,
1931,23.96659279,1931,2.532211781,1931,1.666734934,1931,5.192276478,1931,3.820822477,
1928,24.13849258,1928,2.634526253,1928,1.631599665,1928,5.299374104,1928,3.847582579,
1925,23.90919113,1925,2.632180691,1925,1.706023097,1925,5.280988693,1925,3.812547684,
1922,24.05731583,1922,2.678284883,1922,1.787546039,1922,5.272356033,1922,3.734949112,
1919,24.33915138,1919,2.712749958,1919,1.75570941,1919,5.235924244,1919,3.697528362,
1916,23.9975605,1916,2.672319412,1916,1.790025473,1916,5.092708588,1916,3.720908165,
1913,24.23694801,1913,2.673086405,1913,1.61737299,1913,5.15655899,1913,3.66528821,
1910,24.22813606,1910,2.748861074,1910,1.686869144,1910,5.144107342,1910,3.627417326,
1907,23.90461922,1907,2.821694613,1907,1.688700318,1907,5.208094597,1907,3.639949799,
1904,24.25338173,1904,2.816187859,1904,1.756445289,1904,5.307612419,1904,3.636497259,
1901,24.13681221,1901,2.794758797,1901,1.861103415,1901,5.277596951,1901,3.522846222,
1898,24.19587898,1898,2.757964849,1898,1.838752389,1898,5.225751877,1898,3.544577122,
1895,24.53696823,1895,2.656961918,1895,1.817857504,1895,5.185847282,1895,3.616764069,
1892,24.2210083,1892,2.66174078,1892,1.650899291,1892,5.108551502,1892,3.52993989,
1889,24.41159248,1889,2.597277164,1889,1.643233895,1889,5.037817001,1889,3.625404358,
1886,24.09713173,1886,2.625288486,1886,1.573759317,1886,5.075627804,1886,3.672080517,
1883,23.74550629,1883,2.626812935,1883,1.632683873,1883,5.140820503,1883,3.519797325,
1880,24.05705452,1880,2.624130726,1880,1.729015827,1880,5.299027443,1880,3.608531952,
1877,24.00746918,1877,2.628756762,1877,1.73763001,1877,5.21367979,1877,3.60904932,
1874,24.23015213,1874,2.597210169,1874,1.735427976,1874,5.111495495,1874,3.613337517,
1871,24.43487549,1871,2.573713541,1871,1.650850654,1871,5.197525978,1871,3.61725831,
1868,24.06231689,1868,2.641250134,1868,1.687286019,1868,5.282366276,1868,3.699678183,
1865,24.33036423,1865,2.658178568,1865,1.710206628,1865,5.280888557,1865,3.68245101,
1862,24.36421394,1862,2.689651489,1862,1.767884374,1862,5.397543907,1862,3.701094866,
1859,24.4044857,1859,2.724108219,1859,1.853769422,1859,5.32725811,1859,3.777261019,
1856,24.57049751,1856,2.708707333,1856,1.811712742,1856,5.31310463,1856,3.800845861,
1853,24.38731575,1853,2.751815319,1853,1.822443247,1853,5.174416542,1853,3.817944527,
1850,24.49416924,1850,2.718952179,1850,1.706649542,1850,5.26994276,1850,3.910582542,
1847,24.49944305,1847,2.756986618,1847,1.674152136,1847,5.213040829,1847,3.821425438,
1844,24.37146759,1844,2.78303957,1844,1.7492944,1844,5.316488266,1844,3.795488834,
1841,24.52879906,1841,2.776422501,1841,1.737040639,1841,5.410355091,1841,3.897566319,
1838,24.55158043,1838,2.787381887,1838,1.871594429,1838,5.376142025,1838,3.806218147,
1835,24.83813095,1835,2.733741522,1835,1.877938747,1835,5.366369247,1835,3.747824669,
1832,24.9287529,1832,2.630795956,1832,1.8707968,1832,5.247559071,1832,3.862539768,
1829,24.9044342,1829,2.59442544,1829,1.769396067,1829,5.194926262,1829,3.724045992,
1826,25.13458633,1826,2.600182295,1826,1.75053978,1826,5.220551968,1826,3.784678936,
1823,24.77133369,1823,2.628847122,1823,1.757543206,1823,5.165503025,1823,3.78777051,
1820,24.86419678,1820,2.641520023,1820,1.807964206,1820,5.316692352,1820,3.620226622,
1817,24.96195984,1817,2.658353806,1817,1.929781556,1817,5.273173809,1817,3.637955427,
1814,24.99240685,1814,2.657809019,1814,1.957722187,1814,5.2846241,1814,3.653287172,
1811,25.22246552,1811,2.646156549,1811,1.934763074,1811,5.154206276,1811,3.527413368,
1808,25.16440773,1808,2.686702728,1808,1.829232097,1808,5.162389278,1808,3.61083293,
1805,25.21282959,1805,2.675061941,1805,1.768249273,1805,5.169607162,1805,3.621318579,
1802,25.0677681,1802,2.742796421,1802,1.763900876,1802,5.171580791,1802,3.541720629,
1799,24.97750282,1799,2.809555769,1799,1.737811923,1799,5.355135441,1799,3.583171606,
1796,25.16513252,1796,2.787868977,1796,1.881247997,1796,5.318043232,1796,3.580615997,
1793,25.17622757,1793,2.78125906,1793,1.870232463,1793,5.308963776,1793,3.494857311,
1790,25.39826012,1790,2.695481777,1790,1.86273849,1790,5.288561821,1790,3.668716908,
1787,25.31910515,1787,2.65317893,1787,1.745083928,1787,5.172112465,1787,3.628019571,
1784,25.37537003,1784,2.622445822,1784,1.711562037,1784,5.263366699,1784,3.638001919,
1781,25.24618721,1781,2.642980576,1781,1.762566686,1781,5.297533035,1781,3.735473633,
1778,25.20580292,1778,2.675110817,1778,1.779774427,1778,5.382374763,1778,3.620923758,
1775,25.31710243,1775,2.646974325,1775,1.939029217,1775,5.478681087,1775,3.681409359,
1772,25.4221344,1772,2.659235477,1772,1.9473176,1772,5.414369106,1772,3.742894888,
1769,25.57457161,1769,2.632399797,1769,1.949027419,1769,5.336236954,1769,3.679223061,
1766,25.56613731,1766,2.646169662,1766,1.880118847,1766,5.303003311,1766,3.796837807,
1763,25.60915375,1763,2.646831512,1763,1.820187092,1763,5.282451153,1763,3.780843019,
1760,25.46827126,1760,2.729738474,1760,1.768996358,1760,5.318202496,1760,3.723912239,
1757,25.46729088,1757,2.773306608,1757,1.745801926,1757,5.382860661,1757,3.814535141,
1754,25.49740982,1754,2.817243576,1754,1.828838348,1754,5.379571915,1754,3.713013887,
1751,25.66269112,1751,2.790483236,1751,1.812366605,1751,5.381010056,1751,3.686695099,
1748,25.76808929,1748,2.809221745,1748,1.817969799,1748,5.273395061,1748,3.723848343,
1745,25.78171539,1745,2.766632557,1745,1.716111779,1745,5.221429825,1745,3.628348112,
1742,25.81833649,1742,2.768210411,1742,1.66206193,1742,5.233501911,1742,3.689017057,
1739,25.68185997,1739,2.756209612,1739,1.656349778,1739,5.208086967,1739,3.691317081,
1736,25.71134186,1736,2.7593081,1736,1.712619305,1736,5.289382935,1736,3.624542713,
1733,25.69356537,1733,2.712548733,1733,1.816011071,1733,5.343628407,1733,3.65200305,
1730,25.89894295,1730,2.707813263,1730,1.877081633,1730,5.291615009,1730,3.593789339,
1727,25.93357468,1727,2.660872698,1727,1.887962461,1727,5.223963261,1727,3.578063011,
1724,26.04957199,1724,2.610865355,1724,1.811031461,1724,5.105016232,1724,3.614324808,
1721,26.03678131,1721,2.607522249,1721,1.698747635,1721,5.118330002,1721,3.502680302,
1718,25.91975594,1718,2.638151407,1718,1.686131001,1718,5.119109631,1718,3.555463552,
1715,25.90568924,1715,2.723620415,1715,1.693249345,1715,5.178874493,1715,3.490010977,
1712,25.91158676,1712,2.761147499,1712,1.728868842,1712,5.252252102,1712,3.406415462,
1709,26.08460808,1709,2.763609886,1709,1.786285877,1709,5.196084023,1709,3.477087259,
1706,26.13640404,1706,2.795640707,1706,1.765225053,1706,5.211744308,1706,3.394393682,
1703,26.28647423,1703,2.779788733,1703,1.69917202,1703,5.128397942,1703,3.493718147,
1700,26.18324661,1700,2.803211927,1700,1.593083143,1700,5.110047817,1700,3.447467804,
1697,26.23413849,1697,2.797135115,1697,1.636258125,1697,5.121513367,1697,3.475787163,
1694,26.04688644,1694,2.841432571,1694,1.657993555,1694,5.181066513,1694,3.540601492,
1691,26.21785355,1691,2.809334755,1691,1.733237267,1691,5.226415157,1691,3.482743263,
1688,26.2010479,1688,2.748138905,1688,1.815103412,1688,5.196504593,1688,3.550102472,
1685,26.44227982,1685,2.717349052,1685,1.788702011,1685,5.101931572,1685,3.568333387,
1682,26.41614914,1682,2.673115492,1682,1.756185651,1682,4.97252512,1682,3.584392071,
1679,26.49247932,1679,2.650171757,1679,1.635928631,1679,4.938385487,1679,3.585392952,
1676,26.37000465,1676,2.636638641,1676,1.595308304,1676,4.913988113,1676,3.515351534,
1673,26.31703949,1673,2.700199842,1673,1.583968163,1673,4.920086861,1673,3.499480009,
1670,26.35528183,1670,2.745618582,1670,1.604474664,1670,4.916429043,1670,3.404349804,
1667,26.42692375,1667,2.780208349,1667,1.652211905,1667,4.867252827,1667,3.35691762,
1664,26.63478851,1664,2.806271553,1664,1.633223295,1664,4.800679684,1664,3.330050707,
1661,26.61353874,1661,2.780914783,1661,1.621199369,1661,4.674978733,1661,3.214270592,
1658,26.70088768,1658,2.778604031,1658,1.539559007,1658,4.625207901,1658,3.220476151,
1655,26.57076454,1655,2.801654577,1655,1.571318269,1655,4.602294922,1655,3.160192728,
1652,26.57125092,1652,2.822753429,1652,1.583916903,1652,4.624408722,1652,3.136090517,
1649,26.49019432,1649,2.829118252,1649,1.606407523,1649,4.605023861,1649,3.082709312,
1646,26.66107941,1646,2.788236856,1646,1.690722585,1646,4.58042717,1646,3.049922943,
1643,26.7439537,1643,2.735269308,1643,1.665013075,1643,4.509649277,1643,3.029544353,
1640,26.87075424,1640,2.673284292,1640,1.610983372,1640,4.401198387,1640,3.030222178,
1637,26.79003716,1637,2.686214924,1637,1.48780942,1637,4.357241631,1637,2.995905638,
1634,26.88121414,1634,2.695780754,1634,1.486248016,1634,4.302437782,1634,2.982339382,
1631,26.62959671,1631,2.761918783,1631,1.447729826,1631,4.289596081,1631,2.936772346,
1628,26.78331757,1628,2.768914938,1628,1.467057705,1628,4.319231033,1628,2.915966034,
1625,26.7108345,1625,2.8007586,1625,1.560118318,1625,4.280477524,1625,2.897495508,
1622,27.02010918,1622,2.834949732,1622,1.558275461,1622,4.185054302,1622,2.873309135,
1619,26.91283607,1619,2.845836878,1619,1.576513648,1619,4.069690228,1619,2.861702919,
1616,27.08173752,1616,2.813963652,1616,1.492710471,1616,3.978904247,1616,2.864907026,
1613,26.93823051,1613,2.817498207,1613,1.486580491,1613,3.944252491,1613,2.830580711,
1610,26.92782974,1610,2.85839057,1610,1.480094075,1610,3.869906902,1610,2.817372322,
1607,26.85363007,1607,2.841273308,1607,1.470869184,1607,3.870601654,1607,2.760914564,
1604,26.96696281,1604,2.82653594,1604,1.526596427,1604,3.759099483,1604,2.710350513,
1601,27.14021492,1601,2.767865658,1601,1.509345651,1601,3.663702726,1601,2.664246798,
1598,27.16661072,1598,2.700288534,1598,1.452258825,1598,3.534676552,1598,2.60001564,
1595,27.23439407,1595,2.671586275,1595,1.382062316,1595,3.433712959,1595,2.532902956,
1592,27.13346481,1592,2.689687252,1592,1.345532298,1592,3.373499632,1592,2.490450144,
1589,27.09254837,1589,2.746861935,1589,1.36743927,1589,3.29105258,1589,2.408390045,
1586,26.98179245,1586,2.796819687,1586,1.377964735,1586,3.272663832,1586,2.363315344,
1583,27.16919708,1583,2.812405586,1583,1.437422276,1583,3.166514158,1583,2.276175976,
1580,27.19451523,1580,2.869917393,1580,1.427837253,1580,3.089834452,1580,2.241040707,
1577,27.38879967,1577,2.834876776,1577,1.404194474,1577,2.947226048,1577,2.168272734,
1574,27.28079605,1574,2.825617313,1574,1.33780098,1574,2.879557848,1574,2.117327929,
1571,27.37365723,1571,2.808288574,1571,1.282507777,1571,2.774802923,1571,2.06470561,
1568,27.12539482,1568,2.821058989,1568,1.282578945,1568,2.703785181,1568,2.026950836,
1565,27.20312691,1565,2.819667101,1565,1.242076159,1565,2.698123932,1565,1.955744863,
1562,27.19319153,1562,2.77478981,1562,1.281326056,1562,2.591657162,1562,1.919735432,
1559,27.37007523,1559,2.753174782,1559,1.256116629,1559,2.513735294,1559,1.867931008,
1556,27.46411514,1556,2.694964886,1556,1.25323534,1556,2.385130882,1556,1.833921075,
1553,27.41812134,1553,2.692222118,1553,1.237152457,1553,2.306602001,1553,1.806369662,
1550,27.48394585,1550,2.720002413,1550,1.215629816,1550,2.196314812,1550,1.774343133,
1547,27.24104309,1547,2.780161142,1547,1.218313575,1547,2.150044441,1547,1.726097226,
1544,27.31123543,1544,2.834643126,1544,1.205070138,1544,2.072695494,1544,1.698732615,
1541,27.28501511,1541,2.864280224,1541,1.225536823,1541,1.995290399,1541,1.62974298,
1538,27.4679451,1538,2.868985653,1538,1.188662052,1538,1.911545038,1538,1.579607606,
1535,27.53486252,1535,2.84513402,1535,1.156901121,1535,1.785889506,1535,1.532156944,
1532,27.5336113,1532,2.80751729,1532,1.105469108,1532,1.69490087,1532,1.480957031,
1529,27.57331467,1529,2.772796392,1529,1.080747724,1529,1.615918636,1529,1.416320324,
1526,27.34763336,1526,2.755368948,1526,1.082625031,1526,1.535049796,1526,1.350894332,
1523,27.38673973,1523,2.780312061,1523,1.072957754,1523,1.492895126,1523,1.302072883,
1520,27.36999893,1520,2.783123255,1520,1.095001459,1520,1.426461339,1520,1.236139417,
1517,27.55326843,1517,2.780400515,1517,1.084718466,1517,1.34656024,1517,1.193267822,
1514,27.62063789,1514,2.762919188,1514,1.079328418,1514,1.269254923,1514,1.166573405,
1511,27.62301254,1511,2.759847879,1511,1.073008418,1511,1.199658155,1511,1.114477515,
1508,27.62792206,1508,2.79458189,1508,1.054842591,1508,1.135990381,1508,1.07382369,
1505,27.47467232,1505,2.839624405,1505,1.015576839,1505,1.07101047,1505,1.043557525,
1502,27.43582726,1502,2.894362926,1502,0.9982948303,1502,1.033794284,1502,1.018543363,
1499,27.44271851,1499,2.888813257,1499,0.9892699122,1499,0.9856467247,1499,0.9769355655,
1496,27.60356903,1496,2.86585927,1496,0.9875445366,1496,0.9174520373,1496,0.9374996424,
1493,27.64925003,1493,2.813596725,1493,0.9991761446,1493,0.8651948571,1493,0.9178901315,
1490,27.72402763,1490,2.737918615,1490,0.9953616858,1490,0.8031290174,1490,0.8830088377,
1487,27.6422081,1487,2.722569227,1487,0.9887517691,1487,0.7625354528,1487,0.8517953753,
1484,27.52298927,1484,2.722108126,1484,0.9798478484,1484,0.7224844098,1484,0.815662384,
1481,27.47093201,1481,2.766012907,1481,0.9726207852,1481,0.6940317154,1481,0.7816411257,
1478,27.43847084,1478,2.788751841,1478,0.9738794565,1478,0.6582307816,1478,0.7485492826,
1475,27.63123131,1475,2.798761129,1475,0.9496943951,1475,0.613506794,1475,0.7219264507,
1472,27.6487236,1472,2.818926573,1472,0.9287992716,1472,0.5789173841,1472,0.6897385716,
1469,27.73863411,1469,2.800798893,1469,0.9255532026,1469,0.5413030386,1469,0.6666375995,
1466,27.70669556,1466,2.790802479,1466,0.9318498969,1466,0.5057659745,1466,0.6418309808,
1463,27.51633835,1463,2.789820433,1463,0.9430614114,1463,0.4845644236,1463,0.6131284237,
1460,27.51792717,1460,2.82239604,1460,0.9428929687,1460,0.4694973528,1460,0.5906131268,
1457,27.46082306,1457,2.808549881,1457,0.9388449788,1457,0.4578531384,1457,0.56308496,
1454,27.53598404,1454,2.769325018,1454,0.9389385581,1454,0.4346113205,1454,0.5478700995,
1451,27.70801735,1451,2.72708869,1451,0.9327320457,1451,0.4204789996,1451,0.5303021073,
1448,27.62992477,1448,2.708501339,1448,0.925955534,1448,0.3981351256,1448,0.5074322224,
1445,27.64123917,1445,2.717966318,1445,0.9154348373,1445,0.3705099225,1445,0.4919980764,
1442,27.55460167,1442,2.745591402,1442,0.9166969061,1442,0.3597746193,1442,0.4808855355,
1439,27.37117958,1439,2.821891069,1439,0.9234403968,1439,0.3560315967,1439,0.4690366387,
1436,27.42776871,1436,2.847432852,1436,0.9289542437,1436,0.3477957547,1436,0.456477344,
1433,27.4967556,1433,2.848590612,1433,0.9346956611,1433,0.3409673274,1433,0.4382169843,
1430,27.52107048,1430,2.815988541,1430,0.9415974617,1430,0.3249917328,1430,0.4310447276,
1427,27.58275604,1427,2.748317242,1427,0.9389138818,1427,0.2989963293,1427,0.4163185656,
1424,27.50687218,1424,2.731891155,1424,0.9240170121,1424,0.30894503,1424,0.4161458015,
1421,27.34699631,1421,2.716472626,1421,0.9250230193,1421,0.2921652496,1421,0.3914323747,
1418,27.23078346,1418,2.738623142,1418,0.9166958928,1418,0.2948789299,1418,0.3915815651,
1415,27.13776588,1415,2.745767355,1415,0.9112517238,1415,0.2928631604,1415,0.3795142174,
1412,27.16841125,1412,2.771156073,1412,0.903277874,1412,0.2867865562,1412,0.3675181568,
1409,27.34499359,1409,2.755354643,1409,0.912989974,1409,0.2851444185,1409,0.367772162,
1406,27.23733521,1406,2.737243176,1406,0.9198299646,1406,0.2790675163,1406,0.3551164567,
1403,27.26354599,1403,2.747208118,1403,0.9238167405,1403,0.2842943966,1403,0.347402513,
1400,27.25020409,1400,2.731478214,1400,0.9246929288,1400,0.270626992,1400,0.338267684,
1397,27.21023941,1397,2.764716864,1397,0.9110721946,1397,0.262165755,1397,0.336743325,
1394,27.15808678,1394,2.748235226,1394,0.8832710981,1394,0.2696701884,1394,0.3287447095,
1391,27.13426971,1391,2.748236656,1391,0.873608768,1391,0.2684125304,1391,0.3330869079,
1388,27.50415421,1388,2.71715045,1388,0.8768619299,1388,0.2665532827,1388,0.3295930028,
1385,27.57929039,1385,2.66780138,1385,0.8753246665,1385,0.2667691112,1385,0.3170905411,
1382,27.63593864,1382,2.67914629,1382,0.8809468746,1382,0.2553334832,1382,0.310788691,
1379,27.45754051,1379,2.7054286,1379,0.8846169114,1379,0.2598593831,1379,0.3145769536,
1376,27.43245316,1376,2.793113708,1376,0.8860015273,1376,0.2619135082,1376,0.3050094843,
1373,27.46889305,1373,2.798971653,1373,0.8639259934,1373,0.2685454786,1373,0.3162530661,
1370,27.66382599,1370,2.80474782,1370,0.85189116,1370,0.2658197284,1370,0.3043984771,
1367,27.72091103,1367,2.776281595,1367,0.8522909284,1367,0.2612537444,1367,0.3067101836,
1364,27.74505043,1364,2.709019184,1364,0.8570642471,1364,0.2595857084,1364,0.3058059812,
1361,27.90564537,1361,2.680185318,1361,0.8590168357,1361,0.2581532896,1361,0.3046557009,
1358,27.91028976,1358,2.673550844,1358,0.8733158708,1358,0.2618516684,1358,0.3033768833,
1355,27.81394768,1355,2.717535019,1355,0.8732034564,1355,0.2566942573,1355,0.3091287017,
1352,27.84774971,1352,2.749490261,1352,0.8694980145,1352,0.2613569498,1352,0.2839609385,
1349,27.86689186,1349,2.758210182,1349,0.8440418243,1349,0.247568354,1349,0.2882680297,
1346,27.9274025,1346,2.766216278,1346,0.8350205421,1346,0.2553480268,1346,0.2926971912,
1343,27.94693947,1343,2.72814393,1343,0.8310043216,1343,0.2529348731,1343,0.2781845331,
1340,27.88235474,1340,2.710803986,1340,0.8317108154,1340,0.2422272712,1340,0.2771974206,
1337,27.77599907,1337,2.697591066,1337,0.8373664021,1337,0.2411825806,1337,0.2808461785,
1334,27.57675362,1334,2.713381767,1334,0.8365773559,1334,0.2464980632,1334,0.2810036838,
1331,27.57002449,1331,2.720965624,1331,0.8343595862,1331,0.2404718697,1331,0.2723256946,
1328,27.59708786,1328,2.708753109,1328,0.8349801302,1328,0.2413341105,1328,0.2680411637,
1325,27.69903564,1325,2.710126162,1325,0.8185709119,1325,0.2374520749,1325,0.2708595395,
1322,27.7176342,1322,2.689342022,1322,0.8097196817,1322,0.2423961014,1322,0.2685965598,
1319,27.69395065,1319,2.687078476,1319,0.8078337908,1319,0.2428313941,1319,0.2626365721,
1316,27.68130684,1316,2.694359541,1316,0.8139252663,1316,0.2356949747,1316,0.2702246904,
1313,27.46655273,1313,2.722723484,1313,0.8125442863,1313,0.2324137837,1313,0.257242173,
1310,27.44178391,1310,2.745483875,1310,0.8182070255,1310,0.2391187996,1310,0.2575602233,
1307,27.49601936,1307,2.719786644,1307,0.817170918,1307,0.2370805889,1307,0.2652952075,
1304,27.72267532,1304,2.718332291,1304,0.8174773455,1304,0.2367325127,1304,0.2695120275,
1301,27.81300163,1301,2.681927204,1301,0.8197749257,1301,0.2425608933,1301,0.2713491321,
1298,27.79007912,1298,2.665246964,1298,0.806055665,1298,0.2312940508,1298,0.258158654,
1295,27.75944519,1295,2.680809498,1295,0.8203666806,1295,0.2430840582,1295,0.2515138984,
1292,27.61550522,1292,2.721336126,1292,0.8368697166,1292,0.2299553901,1292,0.2556799352,
1289,27.643507,1289,2.747652292,1289,0.8357743621,1289,0.2326235473,1289,0.262952745,
1286,27.61944008,1286,2.739798069,1286,0.8267199397,1286,0.2319348454,1286,0.2458560914,
1283,27.75812531,1283,2.734262228,1283,0.832980752,1283,0.2415947616,1283,0.261518836,
1280,27.76985168,1280,2.669017315,1280,0.8257713914,1280,0.2288115174,1280,0.2598711252,
1277,27.79691505,1277,2.654411554,1277,0.8191463351,1277,0.2275797725,1277,0.2555274963,
1274,27.80303383,1274,2.661602974,1274,0.831535995,1274,0.2265647054,1274,0.2519943118,
1271,27.63529778,1271,2.688162565,1271,0.8215855956,1271,0.228209123,1271,0.2489860207,
1268,27.6057148,1268,2.746785879,1268,0.8163702488,1268,0.2264132053,1268,0.2609635592,
1265,27.58324051,1265,2.759168148,1265,0.8094888926,1265,0.229897216,1265,0.2596825361,
1262,27.73951912,1262,2.747335196,1262,0.7997969985,1262,0.2224531919,1262,0.2467978001,
1259,27.77913475,1259,2.696785927,1259,0.7991383076,1259,0.2337403148,1259,0.2585194707,
1256,27.8185997,1256,2.684141397,1256,0.7843089104,1256,0.2320795953,1256,0.2611966431,
1253,27.79272842,1253,2.660114527,1253,0.7772008777,1253,0.2243903428,1253,0.2386344671,
1250,27.64256859,1250,2.692166805,1250,0.7693272829,1250,0.2245230824,1250,0.2499836087,
1247,27.58963013,1247,2.744133234,1247,0.7683577538,1247,0.2305236459,1247,0.2482754439,
1244,27.59706116,1244,2.740006924,1244,0.7618325949,1244,0.2293517143,1244,0.2500013709,
1241,27.72789574,1241,2.742722511,1241,0.7617390156,1241,0.2238554209,1241,0.2476653755,
1238,27.79585457,1238,2.714291573,1238,0.7486881614,1238,0.2263724506,1238,0.2434898466,
1235,27.82400894,1235,2.68203783,1235,0.7472475171,1235,0.2206627727,1235,0.2384078503,
1232,27.78869629,1232,2.670017004,1232,0.7505255938,1232,0.2259562314,1232,0.236961782,
1229,27.65073776,1229,2.684525251,1229,0.7530004978,1229,0.2193582654,1229,0.2357670963,
1226,27.58029175,1226,2.727247477,1226,0.7458922267,1226,0.2155176103,1226,0.2446035445,
1223,27.6047554,1223,2.737800121,1223,0.7388589382,1223,0.2309184223,1223,0.2444301248,
1220,27.71310234,1220,2.734470844,1220,0.7322034836,1220,0.2175010443,1220,0.2334824353,
1217,27.81076813,1217,2.723131895,1217,0.7212740183,1217,0.2117416859,1217,0.2358791381,
1214,27.83051491,1214,2.700424433,1214,0.7207475901,1214,0.2240705788,1214,0.2450282872,
1211,27.81471062,1211,2.684928656,1211,0.7064831853,1211,0.2197109908,1211,0.2394056618,
1208,27.6783905,1208,2.690718412,1208,0.6926127672,1208,0.2192365527,1208,0.2387289852,
1205,27.58279228,1205,2.738527536,1205,0.6885008216,1205,0.2181769311,1205,0.2408287674,
1202,27.58119965,1202,2.742313385,1202,0.6862068772,1202,0.2184417546,1202,0.2283096313,
1199,27.66352081,1199,2.732828379,1199,0.6735200286,1199,0.2150360495,1199,0.2508538663,
1196,27.57922935,1196,2.663108826,1196,0.6741694808,1196,0.2050699145,1196,0.239318639,
1193,27.42622757,1193,2.677337408,1193,0.6657037139,1193,0.2065851837,1193,0.2282654941,
1190,27.38715935,1190,2.722443342,1190,0.6727844477,1190,0.2167788297,1190,0.2331046164,
1187,27.37375832,1187,2.700474739,1187,0.662483573,1187,0.2139547616,1187,0.2274574935,
1184,27.51155853,1184,2.714990616,1184,0.6525191665,1184,0.2100203931,1184,0.2328803241,
1181,27.56956291,1181,2.680166006,1181,0.6527866125,1181,0.2044510394,1181,0.2299441695,
1178,27.6163063,1178,2.655290365,1178,0.6526296735,1178,0.2119825929,1178,0.2280188203,
1175,27.56587219,1175,2.651971102,1175,0.6596402526,1175,0.2019686848,1175,0.2320730537,
1172,27.45674324,1172,2.657137632,1172,0.6673538089,1172,0.2014588863,1172,0.2325542718,
1169,27.38837242,1169,2.695407629,1169,0.6723088026,1169,0.2078050077,1169,0.2325092405,
1166,27.38017082,1166,2.699823618,1166,0.6639909744,1166,0.2099546343,1166,0.229116708,
1163,27.47828293,1163,2.685313702,1163,0.6650115252,1163,0.2077981383,1163,0.2201514542,
1160,27.57177734,1160,2.664088011,1160,0.6628243923,1160,0.206088528,1160,0.2214836627,
1157,27.58738327,1157,2.614347458,1157,0.6715174913,1157,0.2039963156,1157,0.2270427346,
1154,27.55559731,1154,2.627598763,1154,0.6805372834,1154,0.2025084049,1154,0.2228130996,
1151,27.46286011,1151,2.632929564,1151,0.6856274605,1151,0.2034457177,1151,0.2191650867,
1148,27.37435913,1148,2.674960613,1148,0.681994617,1148,0.1961043328,1148,0.2179347426,
1145,27.35685921,1145,2.676646233,1145,0.670217216,1145,0.1998585016,1145,0.2273098975,
1142,27.44016647,1142,2.676098585,1142,0.6644693017,1142,0.2022399157,1142,0.2247000635,
1139,27.57468224,1139,2.670347452,1139,0.6719183922,1139,0.1961785406,1139,0.2239775807,
1136,27.56195068,1136,2.613960505,1136,0.6788697839,1136,0.1947695613,1136,0.2199143171,
1133,27.56506157,1133,2.602058649,1133,0.6742323637,1133,0.1933349818,1133,0.207540527,
1130,27.45582199,1130,2.605050802,1130,0.6707518101,1130,0.1945519596,1130,0.2207984179,
1127,27.351717,1127,2.652216911,1127,0.661765337,1127,0.2008407414,1127,0.217373848,
1124,27.39802551,1124,2.671945572,1124,0.6626295447,1124,0.2011092156,1124,0.2155231982,
1121,27.43618774,1121,2.665377378,1121,0.6661453843,1121,0.1957132965,1121,0.2161011845,
1118,27.5870266,1118,2.652396917,1118,0.6686926484,1118,0.1897771209,1118,0.2142128944,
1115,27.56859589,1115,2.609773397,1115,0.6523731947,1115,0.1933745295,1115,0.2134797573,
1112,27.58384132,1112,2.610372305,1112,0.6546490788,1112,0.2003654093,1112,0.2055499405,
1109,27.4510498,1109,2.614107132,1109,0.6568560004,1109,0.186963141,1109,0.2155720741,
1106,27.33622551,1106,2.661372662,1106,0.6620203257,1106,0.1896720678,1106,0.2136248797,
1103,27.29824829,1103,2.672843933,1103,0.6417408586,1103,0.1969178021,1103,0.2055737674,
1100,27.33725548,1100,2.666871071,1100,0.6398386955,1100,0.1954406798,1100,0.2018200904,
1097,27.49454117,1097,2.648312569,1097,0.6282051802,1097,0.1918696612,1097,0.2003002018,
1094,27.48214912,1094,2.591638803,1094,0.6324850321,1094,0.1828828752,1094,0.2031367719,
1091,27.52573204,1091,2.596793413,1091,0.631219089,1091,0.1928881556,1091,0.2105225176,
1088,27.40935898,1088,2.60807991,1088,0.6144096851,1088,0.1843964756,1088,0.2083361447,
1085,27.31047249,1085,2.650672436,1085,0.6027412415,1085,0.1839354038,1085,0.211886555,
1082,27.25426292,1082,2.657491446,1082,0.6091193557,1082,0.1872410327,1082,0.2026632875,
1079,27.30169678,1079,2.642139435,1079,0.6066797376,1079,0.1847264767,1079,0.2069540769,
1076,27.4323082,1076,2.641529083,1076,0.5955964923,1076,0.1878623068,1076,0.2013607919,
1073,27.42891884,1073,2.581882238,1073,0.59299016,1073,0.1711660475,1073,0.2024667561,
1070,27.43796158,1070,2.595350981,1070,0.5883630514,1070,0.182904914,1070,0.2111136168,
1067,27.35297012,1067,2.587617397,1067,0.5922687054,1067,0.1851397306,1067,0.1991425157,
1064,27.24755669,1064,2.632683039,1064,0.5933489203,1064,0.1791024357,1064,0.2046130151,
1061,27.2120266,1061,2.622240543,1061,0.5861729383,1061,0.1835226715,1061,0.19732669,
1058,27.25773239,1058,2.625311613,1058,0.5742346644,1058,0.1796481162,1058,0.19924137,
1055,27.34969521,1055,2.634717464,1055,0.5837058425,1055,0.1822737753,1055,0.191770643,
1052,27.3658371,1052,2.584433794,1052,0.5975974798,1052,0.1774584949,1052,0.2081896812,
1049,27.37666702,1049,2.590036869,1049,0.5870953202,1049,0.1617206037,1049,0.2023082972,
1046,27.31593895,1046,2.588537931,1046,0.5798585415,1046,0.1774507761,1046,0.1958808005,
1043,27.15696144,1043,2.612039804,1043,0.585052073,1043,0.1732926667,1043,0.2006267607,
1040,27.11971474,1040,2.626497269,1040,0.5953934789,1040,0.1765301675,1040,0.1875178218,
1037,27.14171982,1037,2.634309292,1037,0.5919303894,1037,0.1846810579,1037,0.2049063146,
1034,27.27185822,1034,2.638863087,1034,0.5751136541,1034,0.173163265,1034,0.191302523,
1031,27.3093338,1031,2.602604389,1031,0.5740969181,1031,0.1781039387,1031,0.1913396567,
1028,27.26258659,1028,2.570081472,1028,0.5841433406,1028,0.1749155968,1028,0.1930231899,
1025,27.23648834,1025,2.569740534,1025,0.5947818756,1025,0.1735337377,1025,0.1925693154,
1022,27.05556679,1022,2.612019062,1022,0.5875223875,1022,0.1718813181,1022,0.1855871677,
1019,27.03433418,1019,2.639157772,1019,0.5867087245,1019,0.1748357713,1019,0.1946830451,
1016,27.04224014,1016,2.640131712,1016,0.5832986832,1016,0.164691031,1016,0.1926085204,
1013,27.13788223,1013,2.61874485,1013,0.5773006678,1013,0.1788633168,1013,0.2081659436,
1010,27.1690197,1010,2.572999239,1010,0.5654791594,1010,0.1701706499,1010,0.1874328554,
1007,27.14919662,1007,2.564312935,1007,0.558562696,1007,0.1805468649,1007,0.1916756928,
1004,27.12782288,1004,2.576634407,1004,0.5662386417,1004,0.1770252883,1004,0.1811430603,
1001,26.92873383,1001,2.611114025,1001,0.5598874092,1001,0.1773605645,1001,0.1818201691,
998,26.94447899,998,2.607452631,998,0.5543536544,998,0.1839088798,998,0.1940837204,
995,26.89736557,995,2.591307878,995,0.5394998789,995,0.1812457591,995,0.1985427886,
992,27.04823685,992,2.600238562,992,0.5468323827,992,0.1925515682,992,0.1887995005,
989,27.07420349,989,2.583699703,989,0.5413698554,989,0.2020270079,989,0.1854510307,
986,27.08426476,986,2.563551903,986,0.5130639076,986,0.206949532,986,0.1890455782,
983,27.06666374,983,2.552028418,983,0.517601192,983,0.2297030687,983,0.1918209344,
980,26.91964149,980,2.545133829,980,0.5311479568,980,0.2430272102,980,0.1872499287,
977,26.88628769,977,2.595643759,977,0.5309948325,977,0.262345016,977,0.1718494296,
974,26.88585472,974,2.618027925,974,0.5190822482,974,0.2828880847,974,0.1797371656,
971,26.98744202,971,2.59355998,971,0.531285584,971,0.3165930212,971,0.1784480661,
968,27.00619698,968,2.559643507,968,0.5137358904,968,0.3174055815,968,0.166737631,
965,27.01699066,965,2.538682699,965,0.5084232688,965,0.3561772108,965,0.177386567,
962,26.94151688,962,2.54477334,962,0.484921366,962,0.3938474357,962,0.1712860614,
959,26.80609131,959,2.562695265,959,0.5061019659,959,0.4436832964,959,0.1800715476,
956,26.76142502,956,2.598565578,956,0.4995154738,956,0.4842755497,956,0.1534186006,
953,26.71891212,953,2.603810549,953,0.5149719119,953,0.5295757651,953,0.177116245,
950,26.83804703,950,2.600938797,950,0.515011251,950,0.5819298625,950,0.1821566671,
947,26.87905502,947,2.557762861,947,0.4955866337,947,0.6343303919,947,0.1706581861,
944,26.90550995,944,2.562102795,944,0.4671243131,944,0.6940161586,944,0.1332941204,
941,26.86275864,941,2.572558403,941,0.4549108446,941,0.7326962352,941,0.1597762108,
938,26.75699806,938,2.575493336,938,0.458178997,938,0.8028788567,938,0.1384406388,
935,26.67930984,935,2.594826221,935,0.4315483868,935,0.8633466363,935,0.1637257934,
932,26.65216637,932,2.598484993,932,0.4348659515,932,0.8994709849,932,0.1720456034,
929,26.69988632,929,2.612728119,929,0.4346543849,929,0.9636864066,929,0.1608618349,
926,26.74554825,926,2.578768253,926,0.4097744226,926,0.9904957414,926,0.1558895558,
923,26.77598572,923,2.563662529,923,0.3323761523,923,1.028398275,923,0.1547548026,
920,26.71577835,920,2.548222542,920,0.3541556895,920,1.071359873,920,0.1442699283,
917,26.60810089,917,2.583888769,917,0.3159472048,917,1.031312704,917,0.1943757087,
914,26.53797913,914,2.583525419,914,0.2957779169,914,1.074644089,914,0.1734635383,
911,26.56754494,911,2.608623743,911,0.2785732448,911,1.014183521,911,0.1302499324,
908,26.59306526,908,2.663697481,908,0.2354569286,908,0.9355172515,908,0.1650885791,
905,26.64970779,905,2.657239914,905,0.2072076052,905,0.9200932384,905,0.1526072472,
902,26.65102768,902,2.61973238,902,0.1969947964,902,0.8393614292,902,0.1661301404,
899,26.66995811,899,2.577848196,899,0.1972853839,899,0.7392010093,899,0.1612364948,
896,26.57342529,896,2.646499395,896,0.2241474986,896,0.6614074707,896,0.1586642861,
893,26.51686096,893,2.674333811,893,0.2098008245,893,0.619499445,893,0.1532444805,
890,26.51095009,890,2.67039752,890,0.1109035835,890,0.4681252837,890,0.1835278422,
887,26.53745461,887,2.644932985,887,0.1717406809,887,0.4306201935,887,0.2721256912,
884,26.66261482,884,2.62475419,884,0.167921558,884,0.339286834,884,0.2357145995,
881,26.68400764,881,2.56171608,881,0.148001641,881,0.2887544334,881,0.2438434213,
878,26.68408775,878,2.591428041,878,0.1999969333,878,0.197197333,878,0.1492251903,
875,26.59277916,875,2.555975437,875,0.2084871829,875,0.245254606,875,0.2580031753,
872,26.63173103,872,2.612404108,872,0.1401328892,872,0.3198280036,872,0.1989461482,
869,26.69929886,869,2.745414257,869,0.1538184136,869,0.2509615719,869,0.1714636236,
866,26.75381088,866,2.634585381,866,0.1177298501,866,0.1758601218,866,0.2125217766,
863,26.80325508,863,2.78174901,863,0.264513135,863,0.2214986384,863,0.2382798344,
860,26.90880013,860,2.767240763,860,0.2493605763,860,0.1792381108,860,0.09136276692,
857,26.90329552,857,2.641853333,857,0.2719785869,857,0.2898204625,857,0.2797373235,
854,26.95230293,854,2.647428036,854,0.1966353953,854,0.2600469887,854,0.406062752,
851,26.92393303,851,2.901352406,851,0.3595603108,851,0.3021547794,851,0.1736932844,
848,26.95251083,848,2.721721411,848,0.1635134667,848,0.2585713863,848,0.2378352433,
845,27.13075256,845,2.791813612,845,0.2663227618,845,0.2901231945,845,0.2625066936,
842,27.26081848,842,2.941050291,842,0.3083223104,842,0.4218403697,842,0.2773095965,
839,27.25492096,839,2.755321264,839,0.3622815013,839,0.3785368204,839,0.3905088305,
836,27.37478065,836,2.712992668,836,0.2023330033,836,0.3826113641,836,0.2134224623,
833,27.5030365,833,2.792078733,833,0.4732809067,833,0.4475330412,833,0.3347106874,
830,27.45964432,830,2.851332188,830,0.4861530066,830,0.6023525,830,0.3651052117,
827,27.36219406,827,2.824344397,827,0.5006980896,827,0.2951762676,827,0.5517930984,
824,27.51714325,824,2.695850849,824,0.3252473474,824,0.1761569977,824,0.4099574983,
821,27.75264168,821,2.815289736,821,0.3677403331,821,0.2899564803,821,0.3829848766,
818,27.61800385,818,2.956647635,818,0.2989380658,818,0.4128186405,818,0.4886197746,
815,27.69415092,815,3.021728516,815,0.453399688,815,0.5453945994,815,0.419767797,
812,27.83739281,812,3.052074909,812,0.3946929574,812,0.4819260836,812,0.3425354958,
809,27.94902992,809,3.061795235,809,0.3895500302,809,0.3714410961,809,0.4298991561,
806,27.68453026,806,2.862173796,806,0.5364727378,806,0.5706467032,806,0.5979579687,
803,27.67090797,803,2.849082947,803,0.3050459623,803,0.4863118827,803,0.4917647839,
800,28.16333771,800,2.921338081,800,0.6784693599,800,0.4168097973,800,0.6565216184,
798,25.74745369,798,2.093515158,798,0.0358839035,798,0.02866004035,798,0.02876670845,
796,25.77240753,796,2.202410698,796,0.0346640721,796,0.02675990015,796,0.02896123007,
794,25.86923599,794,2.098079443,794,0.03451642022,794,0.02419654839,794,0.02574561723,
792,25.83546257,792,2.038906097,792,0.03314099461,792,0.02900201082,792,0.02356133237,
790,25.70509911,790,2.106917143,790,0.03343624249,790,0.02557429485,790,0.02255874872,
788,26.04874992,788,2.101069927,788,0.03373007849,788,0.02631662413,788,0.0227064956,
786,25.45914268,786,2.134576321,786,0.03502620384,786,0.03068599105,786,0.02655417845,
784,25.85209846,784,2.083884239,784,0.0370493941,784,0.0240797773,784,0.02383631282,
782,25.73591232,782,2.021789789,782,0.03358790651,782,0.02655241452,782,0.02783413231,
780,25.97051048,780,2.064976931,780,0.03371502459,780,0.02433901653,780,0.02495179139,
778,25.63644409,778,2.087241173,778,0.0337578021,778,0.02556468174,778,0.0221708063,
776,25.90830612,776,2.046015024,776,0.03753352538,776,0.02558052354,776,0.02497852221,
774,25.78336906,774,2.005931854,774,0.03324535117,774,0.02745689638,774,0.02457044646,
772,25.84570313,772,2.011749029,772,0.03590831906,772,0.02866135538,772,0.02804332227,
770,25.69850159,770,2.025639057,770,0.0334157981,770,0.02817136794,770,0.02306185849,
768,25.98845291,768,2.053534269,768,0.03234037012,768,0.02542137168,768,0.02413016558,
766,25.80794144,766,1.954210758,766,0.03578418866,766,0.02594651282,766,0.02497474104,
764,25.80976868,764,1.931772709,764,0.03467655182,764,0.02415159531,764,0.02435828932,
762,25.8289299,762,2.008773088,762,0.03030344471,762,0.0224878788,762,0.02691064775,
760,26.09924889,760,1.991995454,760,0.03357363865,760,0.02360839956,760,0.02340973727,
758,25.70269775,758,1.909284115,758,0.03363679722,758,0.02596528269,758,0.02227022126,
756,25.85636711,756,1.892258763,756,0.03086480685,756,0.02398460545,756,0.0257530082,
754,25.93509483,754,1.930254936,754,0.0318566151,754,0.02427372336,754,0.02216208912,
752,25.98347664,752,1.904628396,752,0.03254246712,752,0.02431241237,752,0.02637364343,
750,25.82922935,750,1.87370801,750,0.03124996088,750,0.02541708201,750,0.02360060252,
748,25.70021439,748,1.830562234,748,0.02900074795,748,0.02373161912,748,0.02579150349,
746,26.06525421,746,1.855816364,746,0.03202755749,746,0.02593612298,746,0.02353513613,
744,25.82488632,744,1.84392035,744,0.03084847145,744,0.02173479088,744,0.02357527055,
742,25.71989632,742,1.779649258,742,0.02981152013,742,0.02379312366,742,0.02179194242,
740,26.09692574,740,1.746726274,740,0.02929777466,740,0.02171091735,740,0.02238854393,
738,25.84497833,738,1.773858309,738,0.02910771035,738,0.02263062261,738,0.02384121343,
736,25.86890411,736,1.745934963,736,0.02985969558,736,0.02371166274,736,0.02157616802,
734,25.90361595,734,1.689229131,734,0.03110065684,734,0.02425088175,734,0.0181526728,
732,25.94667625,732,1.659350634,732,0.0303598959,732,0.02375950478,732,0.02472911775,
730,25.8843956,730,1.660231829,730,0.02703665197,730,0.02491754666,730,0.02006587759,
728,25.84612083,728,1.637338519,728,0.02954766713,728,0.02247026935,728,0.02095876075,
726,25.93168068,726,1.582334042,726,0.02896743268,726,0.02411442995,726,0.02279122174,
724,25.95866585,724,1.556302547,724,0.02895713225,724,0.02324659005,724,0.02156127244,
722,25.84407043,722,1.561312914,722,0.02893481776,722,0.02312680334,722,0.02217009105,
720,25.83644676,720,1.522492647,720,0.02830260992,720,0.02168097161,720,0.02135481872,
718,25.96710014,718,1.466012239,718,0.02769857831,718,0.02315030247,718,0.0214062836,
716,25.9108696,716,1.452691793,716,0.0285507217,716,0.02320205607,716,0.01895250566,
714,25.8391819,714,1.46681881,714,0.02794176713,714,0.0217205584,714,0.02050076239,
712,25.99741745,712,1.420983911,712,0.02572546713,712,0.02168508992,712,0.02265906706,
710,25.96904945,710,1.38408339,710,0.0250989832,710,0.02243487909,710,0.0205071792,
708,25.70970726,708,1.362872243,708,0.02530855127,708,0.02106072195,708,0.01973436214,
706,25.79128456,706,1.357939482,706,0.02671662159,706,0.02260332182,706,0.02022781037,
704,26.01812172,704,1.307413816,704,0.02498836629,704,0.02118315734,704,0.0198978968,
702,25.95836449,702,1.28052175,702,0.02465323545,702,0.0201507397,702,0.01977756433,
700,25.74500465,700,1.276242256,700,0.02386793494,700,0.0219309479,700,0.0196485091,
698,25.91039848,698,1.227357149,698,0.02450310253,698,0.0212711487,698,0.02226217836,
696,25.96712112,696,1.18827498,696,0.02428499795,696,0.02066655643,696,0.01927182637,
694,25.80653763,694,1.186236501,694,0.0236732401,694,0.02040723711,694,0.01940600574,
692,25.77466393,692,1.161726832,692,0.02350290678,692,0.02038812451,692,0.0196190048,
690,25.99027824,690,1.109256864,690,0.02395774238,690,0.02100313082,690,0.01973566599,
688,25.94869804,688,1.09516418,688,0.02486507595,688,0.01979542524,688,0.01825477742,
686,25.70747185,686,1.085616112,686,0.02557083592,686,0.02197384462,686,0.01863616705,
684,25.83042717,684,1.044180155,684,0.02315330692,684,0.02018633299,684,0.01914592087,
682,25.9271946,682,1.02579999,682,0.0236370936,682,0.01926553249,682,0.01995309256,
680,25.74362373,680,1.014130712,680,0.02293488011,680,0.01950128004,680,0.01777592115,
678,25.67594337,678,0.9719310403,678,0.02189122513,678,0.01973595284,678,0.01859082095,
676,25.91412354,676,0.9422206283,676,0.02199264057,676,0.01975969225,676,0.01848908514,
674,25.92108536,674,0.9305644035,674,0.02178719081,674,0.01885830425,674,0.01840405539,
672,25.69778633,672,0.897054553,672,0.02125908434,672,0.01926043257,672,0.01893430203,
670,25.78541565,670,0.8756747246,670,0.0222899951,670,0.01959173754,670,0.01762660034,
668,25.85228348,668,0.8706331253,668,0.02103388309,668,0.01838505454,668,0.01705606468,
666,25.66896439,666,0.8384393454,666,0.02184773423,666,0.01959692314,666,0.01843996719,
664,25.62373352,664,0.8079959154,664,0.0205662325,664,0.01856489107,664,0.01866863482,
662,25.79527473,662,0.8179726005,662,0.02021484822,662,0.01813006587,662,0.01757085882,
660,25.77381706,660,0.7876763344,660,0.02088124864,660,0.01885721087,660,0.01785190031,
658,25.52394485,658,0.7590448856,658,0.02060543187,658,0.01814631931,658,0.01771740615,
656,25.5287075,656,0.7706320286,656,0.02048997395,656,0.01763258129,656,0.01776483655,
654,25.63439941,654,0.7446911931,654,0.01949065365,654,0.01810846478,654,0.01733488403,
652,25.44792938,652,0.7269528508,652,0.02056089044,652,0.01831160672,652,0.018117534,
650,25.27108765,650,0.7334951758,650,0.02006131597,650,0.01720938832,650,0.01746439375,
648,25.45663452,648,0.7234540582,648,0.0196977146,648,0.0168088153,648,0.01668143272,
646,25.49061394,646,0.701805234,646,0.01924737915,646,0.01749303192,646,0.0168760512,
644,25.22071266,644,0.7101306915,644,0.01942363754,644,0.01760517992,644,0.01720745862,
642,25.17646217,642,0.701435864,642,0.01917176321,642,0.01735853218,642,0.01665411331,
640,25.30497551,640,0.6992779374,640,0.01895432919,640,0.0174750071,640,0.01726695709,
638,25.29033089,638,0.7104446292,638,0.01871687919,638,0.01684169658,638,0.01555780508,
636,25.23611832,636,0.7071308494,636,0.01928507537,636,0.01704395376,636,0.01719682105,
634,25.47818947,634,0.7213222384,634,0.01879574172,634,0.01668407023,634,0.01617609523,
632,25.55159378,632,0.738699019,632,0.01854125783,632,0.01642226428,632,0.01572859101,
630,25.46468353,630,0.7356013656,630,0.01864145324,630,0.01653340645,630,0.01595539413,
628,25.67269516,628,0.770216167,628,0.01824232377,628,0.01638479717,628,0.01556394529,
626,25.92737961,626,0.7864750028,626,0.0186446961,626,0.01604652405,626,0.01559969969,
624,25.99858284,624,0.7883482575,624,0.01877184957,624,0.01552540157,624,0.01515429467,
622,26.01335335,622,0.8375560045,622,0.01831716299,622,0.01623803191,622,0.01543699484,
620,26.19257355,620,0.8444641829,620,0.01798283122,620,0.01549810544,620,0.01560370997,
618,26.28491783,618,0.8716703653,618,0.0181533359,618,0.01536889281,618,0.01522038318,
616,26.17222404,616,0.9061813354,616,0.01806657016,616,0.01539698616,616,0.01492117345,
614,25.9788456,614,0.9151470065,614,0.01747098565,614,0.01454252936,614,0.01457070187,
612,26.21241188,612,0.9693134427,612,0.0179483369,612,0.01475985907,612,0.01433624607,
610,26.09972382,610,0.9727476239,610,0.01787077822,610,0.01495672204,610,0.01469518058,
608,25.74802971,608,1.004184604,608,0.01770109311,608,0.01437931508,608,0.01416780427,
606,25.90115738,606,1.053651333,606,0.01789835282,606,0.0145516796,606,0.01418169308,
604,25.70272636,604,1.050241947,604,0.01711597852,604,0.01442712639,604,0.01445037499,
602,25.47507858,602,1.112154245,602,0.01772845909,602,0.01434990577,602,0.01405971404,
600,25.24888802,600,1.124348044,600,0.01818891242,600,0.01453841291,600,0.01416107081,
598,25.44582176,598,1.167836189,598,0.01806461625,598,0.01416892745,598,0.01380347554,
596,25.37447548,596,1.199146032,596,0.01766677201,596,0.01384720393,596,0.01359362341,
594,25.21495819,594,1.212682247,594,0.01675451174,594,0.01360337622,594,0.01307928748,
592,25.43081665,592,1.293673515,592,0.01713567227,592,0.01371064316,592,0.01316634752,
590,25.54908752,590,1.281249762,590,0.01709077694,590,0.01307891961,590,0.01344095822,
588,25.59467316,588,1.357583761,588,0.01588942111,588,0.01285031624,588,0.01168051455,
586,25.50523567,586,1.347685575,586,0.01552079897,586,0.01197678875,586,0.01223400142,
584,25.69062996,584,1.39332211,584,0.01613850892,584,0.01157879271,584,0.01159415394,
582,25.70212173,582,1.404924035,582,0.01545752864,582,0.0123448642,582,0.01156523917,
580,25.39639473,580,1.406617403,580,0.0160709694,580,0.01095104869,580,0.01182800159,
578,25.38808632,578,1.423665643,578,0.01536921598,578,0.01099605393,578,0.01106456947,
576,25.46889496,576,1.395050764,576,0.01488049328,576,0.01106926613,576,0.01068153605,
574,25.27383041,574,1.414008021,574,0.01543304976,574,0.01173126791,574,0.01086407527,
572,25.11768341,572,1.365814447,572,0.01563617587,572,0.01110437512,572,0.01125897933,
570,25.22994804,570,1.405182719,570,0.01450849697,570,0.01032682694,570,0.009687615559,
568,25.23703003,568,1.35909605,568,0.01486895792,568,0.01033355482,568,0.01025017444,
566,25.40196991,566,1.388721228,566,0.01454148162,566,0.008961418644,566,0.009891296737,
564,25.3492775,564,1.318217754,564,0.0140526332,564,0.01010855567,564,0.01061423589,
562,25.15408134,562,1.355385423,562,0.01363961305,562,0.009579272009,562,0.009632141329,
560,25.32976913,560,1.293460608,560,0.01321655605,560,0.00875253696,560,0.01039187983,
558,25.40893936,558,1.31540978,558,0.01326106302,558,0.009636040777,558,0.01000159513,
556,25.20502281,556,1.248755574,556,0.012994661,556,0.008886480704,556,0.008958844468,
554,25.16786385,554,1.285117626,554,0.01306080632,554,0.009322408587,554,0.00928349793,
552,25.34888077,552,1.229238629,552,0.01251649112,552,0.009161072783,552,0.009089515544,
550,25.33983231,550,1.238297224,550,0.01259193849,550,0.008777635172,550,0.008943522349,
548,25.12854958,548,1.192907333,548,0.0119544575,548,0.009202921763,548,0.009665452875,
546,25.24913597,546,1.227967978,546,0.01282681618,546,0.008951096795,546,0.008540725335,
544,25.39904022,544,1.180472851,544,0.01251350157,544,0.008391719311,544,0.00897865463,
542,25.2935257,542,1.185157895,542,0.01217650622,542,0.008762827143,542,0.008852474391,
540,25.23032379,540,1.170194507,540,0.01201215386,540,0.007920017466,540,0.008572250605,
538,25.38495064,538,1.171049476,538,0.01141193882,538,0.008231396787,538,0.008109307848,
536,25.33551216,536,1.151572943,536,0.01229015645,536,0.00820556283,536,0.0079903109,
534,25.1444397,534,1.134995222,534,0.0115157431,534,0.008290668949,534,0.00786296837,
532,25.24228668,532,1.16535449,532,0.01280150004,532,0.008431976661,532,0.008255241439,
530,25.31049347,530,1.137844563,530,0.01140727755,530,0.00809530355,530,0.008345758542,
528,25.06687355,528,1.156845808,528,0.01126420312,528,0.008282948285,528,0.007873634808,
526,25.02713203,526,1.155197859,526,0.01265194174,526,0.007646710612,526,0.008019930683,
524,25.29330826,524,1.154467702,524,0.01070288382,524,0.008269559592,524,0.007809114177,
522,25.2517643,522,1.159294367,522,0.01153898519,522,0.008502025157,522,0.007756989915,
520,25.00582123,520,1.139224648,520,0.01165935397,520,0.007816875353,520,0.008156630211,
518,25.13844681,518,1.175184488,518,0.01145147718,518,0.008012479171,518,0.007427988108,
516,25.21671677,516,1.179152012,516,0.01163544226,516,0.007711794693,516,0.008289096877,
514,25.12406158,514,1.173829436,514,0.01150884945,514,0.007929485291,514,0.007982321084,
512,24.97637367,512,1.212057233,512,0.01182917133,512,0.007810796611,512,0.008136456832,
510,25.16288376,510,1.200888276,510,0.01111989003,510,0.007278575562,510,0.007620285731,
508,25.1425209,508,1.205621481,508,0.01178132184,508,0.007595320698,508,0.007723352406,
506,24.95965195,506,1.217591643,506,0.01199708786,506,0.007880697027,506,0.008284449577,
504,24.98661041,504,1.223565698,504,0.01197067928,504,0.00767145399,504,0.007806667592,
502,25.09914017,502,1.234407306,502,0.01104057021,502,0.007962274365,502,0.00813228637,
500,25.06681061,500,1.238383293,500,0.01149849966,500,0.007900146767,500,0.00801366847,
498,24.85577393,498,1.225328445,498,0.01186995395,498,0.007095233537,498,0.007982975803,
496,25.04545403,496,1.220441103,496,0.01185217127,496,0.007485872135,496,0.007398365997,
494,25.08808136,494,1.202402115,494,0.01165181864,494,0.007551333867,494,0.007901256904,
492,24.85511398,492,1.158367991,492,0.01226503123,492,0.00731998682,492,0.007678802591,
490,24.85871124,490,1.111333966,490,0.01111152675,490,0.007209846284,490,0.007928844541,
488,25.0143261,488,1.063316107,488,0.01098930184,488,0.007834689692,488,0.007451941259,
486,24.96538734,486,0.9722148776,486,0.01057900768,486,0.008243191987,486,0.007570216432,
484,24.8037529,484,0.8736671209,484,0.01043436956,484,0.007564604282,484,0.007194044068,
482,24.92624474,482,0.7535076737,482,0.009978381917,482,0.007617854048,482,0.008044453338,
480,24.96576118,480,0.6389814615,480,0.009359454736,480,0.007166121155,480,0.008235430345,
478,24.75469017,478,0.5278515816,478,0.008942794986,478,0.007195513695,478,0.007128905505,
476,24.76602745,476,0.4284203649,476,0.008827139623,476,0.007453971077,476,0.00684802141,
474,24.95184326,474,0.3429802358,474,0.009166882373,474,0.007437592372,474,0.00715107983,
472,24.89488792,472,0.2763087749,472,0.008848823607,472,0.007574522868,472,0.007598354481,
470,24.71829987,470,0.2230288684,470,0.008328385651,470,0.007977444679,470,0.006633584388,
468,24.80937195,468,0.1855250448,468,0.007757446263,468,0.006828498561,468,0.006945587695,
466,24.83402824,466,0.1528295279,466,0.007625306025,466,0.007031088229,466,0.007076352835,
464,24.65439415,464,0.1333245337,464,0.007247646805,464,0.006725430954,464,0.006822866388,
462,24.65789413,462,0.1181075349,462,0.007750691846,462,0.007266589906,462,0.006198150571,
460,24.8187294,460,0.1095718443,460,0.007528346032,460,0.007286955137,460,0.006193405017,
458,24.83286858,458,0.101729624,458,0.006878488231,458,0.006168699358,458,0.006728399545,
456,24.64085197,456,0.09614076465,456,0.007625410799,456,0.006426757202,456,0.006633562036,
454,24.66017723,454,0.09359569848,454,0.007529357448,454,0.006897514686,454,0.007151917089,
452,24.74293327,452,0.09044585377,452,0.007555660792,452,0.007001760416,452,0.006753412075,
450,24.56142998,450,0.09197559208,450,0.006514420267,450,0.006305052433,450,0.007170732133,
448,24.50460052,448,0.08984321356,448,0.006903687492,448,0.00672809314,448,0.00652715005,
446,24.6548748,446,0.09244134277,446,0.006696329452,446,0.006162902806,446,0.006688580383,
444,24.6459465,444,0.08901558816,444,0.007117591333,444,0.007106832229,444,0.007196987979,
442,24.42009354,442,0.0897128582,442,0.008082989603,442,0.006956105586,442,0.00611690199,
440,24.49231529,440,0.09194031358,440,0.006907026749,440,0.007319874596,440,0.006531435996,
438,24.55834198,438,0.08991625905,438,0.00650017662,438,0.006251905113,438,0.006577276625,
436,24.37207603,436,0.08869577199,436,0.006694989745,436,0.00669789454,436,0.00626030378,
434,24.27867126,434,0.09116045386,434,0.006451203953,434,0.006773719564,434,0.006843931042,
432,24.44115639,432,0.09091184288,432,0.006874292158,432,0.006893568207,432,0.006364809815,
430,24.42916679,430,0.08845489472,430,0.007351136301,430,0.006717512384,430,0.006539932452,
428,24.27602959,428,0.0882839188,428,0.006569377147,428,0.007006912958,428,0.007205250673,
426,24.3181324,426,0.08973541856,426,0.006198743358,426,0.006825538818,426,0.007611480542,
424,24.48509216,424,0.08871447295,424,0.006982608698,424,0.00665015541,424,0.005987610202,
422,24.40956497,422,0.08999081701,422,0.006505068392,422,0.006547178142,422,0.006882520393,
420,24.33916855,420,0.09021374583,420,0.005678245798,420,0.005635022186,420,0.006308149546,
418,24.52008438,418,0.08857170492,418,0.006615825463,418,0.00579788303,418,0.006826937199,
416,24.49730873,416,0.08809799701,416,0.005451131146,416,0.006158157252,416,0.006368363276,
414,24.35674858,414,0.0873683095,414,0.006325216033,414,0.005972124171,414,0.006195681635,
412,24.37765312,412,0.09005826712,412,0.005585188046,412,0.005739028566,412,0.005643717013,
410,24.54827118,410,0.08928687871,410,0.006434870884,410,0.006311279722,410,0.005677839741,
408,24.52535057,408,0.08611863852,408,0.006654536817,408,0.005885321647,408,0.006921000779,
406,24.4198761,406,0.08785289526,406,0.006207932252,406,0.006823671516,406,0.005153674167,
404,24.645895,404,0.09071403742,404,0.006865231786,404,0.006603447255,404,0.006849893369,
402,24.68374252,402,0.08896776289,402,0.005765670445,402,0.005526728462,402,0.007844000123,
400,24.43920326,400,0.08791433275,400,0.005947113037,400,0.005346696824,400,0.006278350484,

Hole,
Hole
Collection Time: 17/11/2023 12:05:31 PM
Operator Name  :
Scan Software Version: 4.10(464)
Parameter List :
Instrument                        Cary 5000
Instrument Version                1.12
Start (nm)                        2000.00
Stop (nm)                         400.00
X Mode                            Nanometers
Y Mode                            %T
Independent NIR                   On
Measurement Mode                  Auto
UV-Vis Data Interval (nm)         2.00
UV-Vis Ave. Time (sec)            0.100
UV-Vis SBW (nm)                   2.000
NIR Scan Rate (nm/min)            1800.000
NIR Data Interval (nm)            3.00
NIR Ave. Time (sec)               0.100
NIR Energy                        3.00
Slit Height                       Full
Beam Mode                         Double
Signal-to-noise Mode              Off
UV Source                         On
Vis Source                        On
Third Source                      Off
Source Changeover (nm)            350.00
Detector Changeover (nm)          800.00
Grating Changeover (nm)           800.00
Baseline Correction               Off
Cycle Mode                        Off
Comments
Method Log     :
Method Name    :
Date/Time stamp: 17/11/2023 11:47:17 AM
Method Modifications:
X Start nm Changed: 17/11/2023 11:57:29 AM, Old: 800.00, New:2000.00
X Stop nm Changed: 17/11/2023 11:57:29 AM, Old: 200.00, New: 400.00
Idpt Control Changed: 17/11/2023 11:57:29 AM, Old:0, New:1
UVVIS Interval nm Changed: 17/11/2023 11:57:29 AM, Old:     1.00, New:     2.00
NIR Scan Rate nm Changed: 17/11/2023 11:57:29 AM, Old:  600.000, New: 1800.000
NIR Interval nm Changed: 17/11/2023 11:57:29 AM, Old:     1.00, New:     3.00
Y mode Changed: 17/11/2023 11:59:29 AM, Old:Abs, New:%T
End Method Modifications
<SBW (nm)> , 2.00
<Energy> , 3.00
<Slit height> , Full
<Current Wavelength> , 800.00
<SBW (nm)> , 2.00
<Energy> , 302.00
<Slit height> , Full
<Current Wavelength> , 399.00

MnPS3,
MnPS3
Collection Time: 17/11/2023 12:08:20 PM
Operator Name  :
Scan Software Version: 4.10(464)
Parameter List :
Instrument                        Cary 5000
Instrument Version                1.12
Start (nm)                        2000.00
Stop (nm)                         400.00
X Mode                            Nanometers
Y Mode                            %T
Independent NIR                   On
Measurement Mode                  Auto
UV-Vis Data Interval (nm)         2.00
UV-Vis Ave. Time (sec)            0.100
UV-Vis SBW (nm)                   2.000
NIR Scan Rate (nm/min)            1800.000
NIR Data Interval (nm)            3.00
NIR Ave. Time (sec)               0.100
NIR Energy                        3.00
Slit Height                       Full
Beam Mode                         Double
Signal-to-noise Mode              Off
UV Source                         On
Vis Source                        On
Third Source                      Off
Source Changeover (nm)            350.00
Detector Changeover (nm)          800.00
Grating Changeover (nm)           800.00
Baseline Correction               Off
Cycle Mode                        Off
Comments
Method Log     :
Method Name    :
Date/Time stamp: 17/11/2023 11:47:17 AM
Method Modifications:
X Start nm Changed: 17/11/2023 11:57:29 AM, Old: 800.00, New:2000.00
X Stop nm Changed: 17/11/2023 11:57:29 AM, Old: 200.00, New: 400.00
Idpt Control Changed: 17/11/2023 11:57:29 AM, Old:0, New:1
UVVIS Interval nm Changed: 17/11/2023 11:57:29 AM, Old:     1.00, New:     2.00
NIR Scan Rate nm Changed: 17/11/2023 11:57:29 AM, Old:  600.000, New: 1800.000
NIR Interval nm Changed: 17/11/2023 11:57:29 AM, Old:     1.00, New:     3.00
Y mode Changed: 17/11/2023 11:59:29 AM, Old:Abs, New:%T
End Method Modifications
<SBW (nm)> , 2.00
<Energy> , 3.00
<Slit height> , Full
<Current Wavelength> , 800.00
<SBW (nm)> , 2.00
<Energy> , 302.00
<Slit height> , Full
<Current Wavelength> , 400.00

CrPS4,
CrPS4
Collection Time: 17/11/2023 12:11:31 PM
Operator Name  :
Scan Software Version: 4.10(464)
Parameter List :
Instrument                        Cary 5000
Instrument Version                1.12
Start (nm)                        2000.00
Stop (nm)                         400.00
X Mode                            Nanometers
Y Mode                            %T
Independent NIR                   On
Measurement Mode                  Auto
UV-Vis Data Interval (nm)         2.00
UV-Vis Ave. Time (sec)            0.100
UV-Vis SBW (nm)                   2.000
NIR Scan Rate (nm/min)            1800.000
NIR Data Interval (nm)            3.00
NIR Ave. Time (sec)               0.100
NIR Energy                        3.00
Slit Height                       Full
Beam Mode                         Double
Signal-to-noise Mode              Off
UV Source                         On
Vis Source                        On
Third Source                      Off
Source Changeover (nm)            350.00
Detector Changeover (nm)          800.00
Grating Changeover (nm)           800.00
Baseline Correction               Off
Cycle Mode                        Off
Comments
Method Log     :
Method Name    :
Date/Time stamp: 17/11/2023 11:47:17 AM
Method Modifications:
X Start nm Changed: 17/11/2023 11:57:29 AM, Old: 800.00, New:2000.00
X Stop nm Changed: 17/11/2023 11:57:29 AM, Old: 200.00, New: 400.00
Idpt Control Changed: 17/11/2023 11:57:29 AM, Old:0, New:1
UVVIS Interval nm Changed: 17/11/2023 11:57:29 AM, Old:     1.00, New:     2.00
NIR Scan Rate nm Changed: 17/11/2023 11:57:29 AM, Old:  600.000, New: 1800.000
NIR Interval nm Changed: 17/11/2023 11:57:29 AM, Old:     1.00, New:     3.00
Y mode Changed: 17/11/2023 11:59:29 AM, Old:Abs, New:%T
End Method Modifications
<SBW (nm)> , 2.00
<Energy> , 3.00
<Slit height> , Full
<Current Wavelength> , 800.00
<SBW (nm)> , 2.00
<Energy> , 302.00
<Slit height> , Full
<Current Wavelength> , 400.00

NiPS3,
NiPS3
Collection Time: 17/11/2023 12:15:31 PM
Operator Name  :
Scan Software Version: 4.10(464)
Parameter List :
Instrument                        Cary 5000
Instrument Version                1.12
Start (nm)                        2000.00
Stop (nm)                         400.00
X Mode                            Nanometers
Y Mode                            %T
Independent NIR                   On
Measurement Mode                  Auto
UV-Vis Data Interval (nm)         2.00
UV-Vis Ave. Time (sec)            0.100
UV-Vis SBW (nm)                   2.000
NIR Scan Rate (nm/min)            1800.000
NIR Data Interval (nm)            3.00
NIR Ave. Time (sec)               0.100
NIR Energy                        3.00
Slit Height                       Full
Beam Mode                         Double
Signal-to-noise Mode              Off
UV Source                         On
Vis Source                        On
Third Source                      Off
Source Changeover (nm)            350.00
Detector Changeover (nm)          800.00
Grating Changeover (nm)           800.00
Baseline Correction               Off
Cycle Mode                        Off
Comments
Method Log     :
Method Name    :
Date/Time stamp: 17/11/2023 11:47:17 AM
Method Modifications:
X Start nm Changed: 17/11/2023 11:57:29 AM, Old: 800.00, New:2000.00
X Stop nm Changed: 17/11/2023 11:57:29 AM, Old: 200.00, New: 400.00
Idpt Control Changed: 17/11/2023 11:57:29 AM, Old:0, New:1
UVVIS Interval nm Changed: 17/11/2023 11:57:29 AM, Old:     1.00, New:     2.00
NIR Scan Rate nm Changed: 17/11/2023 11:57:29 AM, Old:  600.000, New: 1800.000
NIR Interval nm Changed: 17/11/2023 11:57:29 AM, Old:     1.00, New:     3.00
Y mode Changed: 17/11/2023 11:59:29 AM, Old:Abs, New:%T
End Method Modifications
<SBW (nm)> , 2.00
<Energy> , 3.00
<Slit height> , Full
<Current Wavelength> , 800.00
<SBW (nm)> , 2.00
<Energy> , 302.00
<Slit height> , Full
<Current Wavelength> , 399.00

FePS3,
FePS3
Collection Time: 17/11/2023 12:18:16 PM
Operator Name  :
Scan Software Version: 4.10(464)
Parameter List :
Instrument                        Cary 5000
Instrument Version                1.12
Start (nm)                        2000.00
Stop (nm)                         400.00
X Mode                            Nanometers
Y Mode                            %T
Independent NIR                   On
Measurement Mode                  Auto
UV-Vis Data Interval (nm)         2.00
UV-Vis Ave. Time (sec)            0.100
UV-Vis SBW (nm)                   2.000
NIR Scan Rate (nm/min)            1800.000
NIR Data Interval (nm)            3.00
NIR Ave. Time (sec)               0.100
NIR Energy                        3.00
Slit Height                       Full
Beam Mode                         Double
Signal-to-noise Mode              Off
UV Source                         On
Vis Source                        On
Third Source                      Off
Source Changeover (nm)            350.00
Detector Changeover (nm)          800.00
Grating Changeover (nm)           800.00
Baseline Correction               Off
Cycle Mode                        Off
Comments
Method Log     :
Method Name    :
Date/Time stamp: 17/11/2023 11:47:17 AM
Method Modifications:
X Start nm Changed: 17/11/2023 11:57:29 AM, Old: 800.00, New:2000.00
X Stop nm Changed: 17/11/2023 11:57:29 AM, Old: 200.00, New: 400.00
Idpt Control Changed: 17/11/2023 11:57:29 AM, Old:0, New:1
UVVIS Interval nm Changed: 17/11/2023 11:57:29 AM, Old:     1.00, New:     2.00
NIR Scan Rate nm Changed: 17/11/2023 11:57:29 AM, Old:  600.000, New: 1800.000
NIR Interval nm Changed: 17/11/2023 11:57:29 AM, Old:     1.00, New:     3.00
Y mode Changed: 17/11/2023 11:59:29 AM, Old:Abs, New:%T
End Method Modifications
<SBW (nm)> , 2.00
<Energy> , 3.00
<Slit height> , Full
<Current Wavelength> , 799.00
<SBW (nm)> , 2.00
<Energy> , 302.00
<Slit height> , Full
<Current Wavelength> , 399.00

