Hole,,MnPS3,,CrPS4,,NiPS3,,FePS3,,
Wavelength (nm),%T,Wavelength (nm),%T,Wavelength (nm),%T,Wavelength (nm),%T,Wavelength (nm),%T,
2000,94.2820282,2000,11.28815937,2000,12.70898151,2000,29.16702271,2000,14.63686371,
1997,95.52442932,1997,11.26480961,1997,12.66152,1997,29.20582008,1997,14.65207481,
1994,96.23551178,1994,11.18185329,1994,12.5905962,1994,29.47970963,1994,14.72238731,
1991,96.33519745,1991,11.21832848,1991,12.88306522,1991,29.56181717,1991,14.84352016,
1988,98.21767426,1988,11.26269436,1988,13.52806377,1988,30.24162292,1988,14.99556923,
1985,98.75810242,1985,11.2451582,1985,13.43615818,1985,30.49829102,1985,15.28990078,
1982,98.83157349,1982,11.30805492,1982,13.62168598,1982,30.73092079,1982,15.35852432,
1979,100.1063614,1979,11.54440212,1979,13.08987999,1979,31.20280457,1979,15.80119133,
1976,100.6742096,1976,11.85781956,1976,13.30482674,1976,31.20739746,1976,15.84718513,
1973,100.9291382,1973,12.06775379,1973,13.42263794,1973,31.6386261,1973,15.94896126,
1970,103.3629456,1970,12.27092934,1970,13.48368549,1970,32.0424881,1970,16.01002502,
1967,103.6464844,1967,12.51283455,1967,14.1729908,1967,32.57451248,1967,16.44345665,
1964,104.0189362,1964,12.73143101,1964,14.32911015,1964,32.99436188,1964,16.59667587,
1961,106.33992,1961,12.82090092,1961,14.42372036,1961,33.55543518,1961,16.91671181,
1958,106.0305481,1958,13.07955074,1958,14.07293987,1958,33.46238327,1958,17.21053505,
1955,106.8852386,1955,13.09876919,1955,14.20617104,1955,33.49880219,1955,17.46886444,
1952,108.9614182,1952,13.07428646,1952,14.1394701,1952,33.96112061,1952,17.65847969,
1949,109.3594208,1949,13.20167065,1949,14.56115055,1949,34.37159729,1949,17.93548012,
1946,110.3748779,1946,12.91393661,1946,14.79430199,1946,34.96821213,1946,17.92494011,
1943,112.2974854,1943,13.11302948,1943,14.96610641,1943,35.39920807,1943,18.21556664,
1940,112.334671,1940,12.97149181,1940,15.31410217,1940,35.77672195,1940,18.30031395,
1937,113.2980576,1937,12.94260788,1937,14.99326229,1937,35.77519989,1937,18.69459534,
1934,114.6075745,1934,12.97110939,1934,14.87455368,1934,35.78311157,1934,18.93213844,
1931,114.2088318,1931,13.22307301,1931,15.06118011,1931,35.58401108,1931,18.84910393,
1928,115.0254517,1928,13.07107353,1928,14.84414291,1928,35.64357376,1928,18.79366875,
1925,116.3780212,1925,13.29620361,1925,15.46072388,1925,35.73478317,1925,19.17970276,
1922,115.0192719,1922,13.39737034,1922,15.85003853,1922,35.79231644,1922,18.6571846,
1919,116.3069229,1919,13.46351051,1919,15.25830746,1919,35.71556473,1919,18.47195625,
1916,116.2752838,1916,13.77961445,1916,15.46123505,1916,35.65991974,1916,18.62104416,
1913,113.9789124,1913,13.63490677,1913,15.15347672,1913,35.48293304,1913,18.03135681,
1910,114.6133423,1910,13.62532711,1910,15.30105591,1910,34.90863419,1910,17.63788033,
1907,112.2283783,1907,13.80310917,1907,15.21200657,1907,34.84895706,1907,17.40019989,
1904,112.5922089,1904,13.60973835,1904,15.79440212,1904,34.69997787,1904,17.14333153,
1901,113.8239899,1901,13.64469814,1901,15.91748905,1901,34.83502197,1901,17.02839661,
1898,110.566391,1898,13.50966072,1898,15.72814846,1898,34.95181656,1898,16.83419418,
1895,111.0270615,1895,13.18533421,1895,15.40144825,1895,34.78233337,1895,16.86700821,
1892,110.4488144,1892,13.17257023,1892,14.60109615,1892,33.74391174,1892,16.72025681,
1889,111.1927872,1889,13.08407021,1889,14.72773838,1889,33.79009247,1889,16.894804,
1886,115.2344971,1886,13.25154018,1886,14.47988605,1886,34.53117752,1886,17.88876724,
1883,114.1045227,1883,13.30101967,1883,15.19329262,1883,34.64766312,1883,17.5588913,
1880,113.4545593,1880,13.19939804,1880,15.45633411,1880,35.87122726,1880,17.65712547,
1877,112.574028,1877,12.87436771,1877,15.16698265,1877,35.35184097,1877,17.78563499,
1874,111.4985199,1874,12.8855629,1874,15.16818523,1874,35.39141846,1874,17.37099648,
1871,114.5377045,1871,12.9683466,1871,15.01028728,1871,36.1195755,1871,17.81182098,
1868,112.8267288,1868,13.04197311,1868,15.49793816,1868,36.75218964,1868,18.17969894,
1865,112.2257919,1865,12.74431515,1865,15.48893166,1865,36.18790436,1865,17.71958542,
1862,113.4352722,1862,12.76103878,1862,15.83124733,1862,36.22077942,1862,17.70891762,
1859,116.2375336,1859,13.29621696,1859,15.96260071,1859,36.83184814,1859,18.56575966,
1856,116.9253845,1856,13.59774208,1856,16.13152885,1856,37.02789307,1856,18.71984863,
1853,118.1554565,1853,13.82617092,1853,15.94119072,1853,37.36791611,1853,18.95790863,
1850,116.3989105,1850,14.21652889,1850,15.92806435,1850,37.75050354,1850,19.48217201,
1847,118.4135895,1847,14.30735302,1847,15.95124054,1847,37.44260025,1847,19.16259384,
1844,117.0560455,1844,14.39265156,1844,16.25956535,1844,37.68207932,1844,18.99323082,
1841,119.2410812,1841,14.40836906,1841,16.54592705,1841,38.17850494,1841,19.60225677,
1838,118.7967453,1838,14.11092854,1838,17.09947586,1838,37.86273575,1838,19.18045807,
1835,120.209816,1835,14.23780632,1835,17.41919136,1835,38.681427,1835,19.07620049,
1832,120.7892914,1832,14.08301449,1832,17.05283165,1832,38.94720459,1832,19.53897095,
1829,119.8934097,1829,13.7398138,1829,16.93007278,1829,37.82240677,1829,19.0337162,
1826,121.4553986,1826,13.69546986,1826,16.66797447,1826,38.13952255,1826,19.04702187,
1823,123.0418549,1823,13.72448158,1823,16.96372223,1823,38.30891037,1823,19.75419426,
1820,122.9902267,1820,13.62526608,1820,17.26813507,1820,38.00216293,1820,19.08187675,
1817,124.6239548,1817,13.68398094,1817,17.97721481,1817,38.7798233,1817,19.08993721,
1814,125.3147125,1814,13.7709465,1814,18.05076408,1814,38.8945694,1814,19.55828285,
1811,124.7888565,1811,13.883708,1811,17.86097527,1811,38.61614609,1811,18.8718853,
1808,126.1049423,1808,14.2517643,1808,17.49865913,1808,38.91639709,1808,19.16342735,
1805,126.1372223,1805,14.51200581,1805,17.5382576,1805,38.58831024,1805,19.33366394,
1802,127.6922073,1802,14.62843704,1802,17.5592289,1802,39.0752449,1802,18.98104095,
1799,128.4592438,1799,14.83472729,1799,17.74707794,1799,39.514534,1799,19.24979782,
1796,129.544754,1796,14.92820358,1796,18.3294735,1796,39.82100677,1796,19.37444496,
1793,130.0286713,1793,15.13133049,1793,17.92800903,1793,40.47748566,1793,19.15184021,
1790,130.5757904,1790,15.17598343,1790,18.21903801,1790,40.4922142,1790,19.72704124,
1787,131.4625549,1787,15.14885426,1787,17.3619957,1787,40.56131363,1787,19.97314453,
1784,131.3939667,1784,15.01739311,1784,17.4258461,1784,40.79265594,1784,19.87492752,
1781,132.7923889,1781,14.92774296,1781,17.41362381,1781,41.46996307,1781,20.57499313,
1778,133.6461182,1778,14.85162067,1778,17.68766594,1778,41.40472412,1778,20.41249084,
1775,134.6193237,1775,14.74825478,1775,18.51128387,1775,42.3228035,1775,20.5761528,
1772,135.2471008,1772,14.74717236,1772,18.51232147,1772,42.50072861,1772,21.38071442,
1769,135.692688,1769,14.83946896,1769,18.89896965,1769,42.48022079,1769,21.23672104,
1766,136.0974884,1766,14.93554115,1766,18.21875381,1766,42.99959183,1766,21.73573494,
1763,136.5114746,1763,15.21683025,1763,18.55429649,1763,42.19550323,1763,21.91372681,
1760,137.4823761,1760,15.33552551,1760,18.60923195,1760,42.43096542,1760,21.61548615,
1757,138.4641113,1757,15.48477268,1757,18.76775742,1757,42.602314,1757,22.30517197,
1754,139.311676,1754,15.7678051,1754,19.20854759,1754,42.43080902,1754,22.05740166,
1751,139.9974518,1751,16.0103817,1751,19.16296387,1751,43.1288414,1751,21.69186401,
1748,140.6990509,1748,16.05673981,1748,19.06494713,1748,43.24995804,1748,22.18416214,
1745,140.7658234,1745,16.24929047,1745,18.27839088,1745,42.96365738,1745,21.69155121,
1742,141.429718,1742,16.36204338,1742,18.16657066,1742,43.13496399,1742,21.96356201,
1739,142.0902405,1739,16.26682472,1739,18.08194733,1739,42.75149536,1739,22.33719444,
1736,143.3998566,1736,16.30430222,1736,18.30560493,1736,43.26446915,1736,21.94672585,
1733,144.0972748,1733,16.06654167,1733,18.87301445,1733,43.69712067,1733,22.41337967,
1730,144.841095,1730,15.95340252,1730,19.11237717,1730,43.3952179,1730,22.3137207,
1727,145.7462616,1727,15.8995924,1727,18.98910904,1727,43.91072845,1727,22.30077362,
1724,145.4506836,1724,15.89919186,1724,18.83971214,1724,43.40063477,1724,22.67530632,
1721,146.6072845,1721,15.83869171,1721,18.73517036,1721,43.4589653,1721,22.37659836,
1718,146.9663849,1718,15.87879181,1718,19.119524,1718,43.5255928,1718,22.55547714,
1715,148.5089722,1715,15.99582863,1715,19.10090446,1715,43.53176498,1715,22.51576805,
1712,148.9064484,1712,16.19361496,1712,19.68672943,1712,44.35060501,1712,22.34972954,
1709,150.3168335,1709,16.39027023,1709,19.72397041,1709,44.5287056,1709,22.67749977,
1706,150.4406281,1706,16.66275215,1706,19.46446991,1706,45.26635742,1706,22.45141029,
1703,150.9406738,1703,16.9921608,1703,19.04935455,1703,45.30028915,1703,22.70049858,
1700,151.289444,1700,17.23725891,1700,18.53868103,1700,45.14306259,1700,23.09852219,
1697,152.2102814,1697,17.34825897,1697,18.78073311,1697,45.6765976,1697,23.12210655,
1694,153.4262695,1694,17.48824883,1694,18.78399849,1694,45.96844482,1694,23.79205322,
1691,154.0529785,1691,17.4126873,1691,19.53672981,1691,46.51908112,1691,23.51843834,
1688,155.2169495,1688,17.25803757,1688,19.75208092,1688,47.12812424,1688,24.1729126,
1685,155.3929138,1685,17.01672173,1685,19.8041687,1685,46.95692444,1685,24.42772484,
1682,156.3188019,1682,17.00547028,1682,19.75629997,1682,47.00714493,1682,24.68581581,
1679,156.0355225,1679,17.01857185,1679,19.32293701,1679,46.4478302,1679,25.1842556,
1676,157.586853,1676,17.03496552,1676,19.76102448,1676,46.34431839,1676,24.93050003,
1673,157.8817444,1673,16.89435768,1673,19.49470139,1673,46.50136948,1673,25.17891502,
1670,159.8191071,1670,16.86553574,1670,20.3124218,1670,46.24968338,1670,25.09581757,
1667,159.7799988,1667,17.13536453,1667,20.17258644,1667,47.01585007,1667,24.80960846,
1664,161.5022125,1664,17.45829582,1664,20.11614418,1664,46.56629181,1664,24.79963875,
1661,160.7661285,1661,17.91698647,1661,19.50088692,1661,47.07507324,1661,24.42796898,
1658,162.0881653,1658,18.08474731,1658,19.19577026,1658,46.39228821,1658,24.50135612,
1655,162.1641693,1655,18.22008705,1655,19.38895226,1655,46.69062424,1655,24.33741379,
1652,164.0557709,1652,18.2121315,1652,19.49110413,1652,46.75369263,1652,24.36260796,
1649,164.484375,1649,18.27088356,1649,20.36080742,1649,47.13024139,1649,24.36761093,
1646,166.0269623,1646,18.2013607,1646,20.63422775,1646,47.73975754,1646,24.27315331,
1643,166.0752716,1643,18.1609745,1643,20.9727726,1643,48.06837082,1643,24.50494766,
1640,167.0278931,1640,17.91342354,1640,20.370718,1640,48.37926483,1640,24.50803947,
1637,166.8667755,1637,17.92465973,1637,20.31365967,1637,48.02921677,1637,24.66757584,
1634,168.1221771,1634,17.97823715,1634,20.12154198,1634,48.69103241,1634,24.81614494,
1631,168.7305756,1631,18.20055008,1631,20.27710152,1631,48.93021011,1631,25.15147972,
1628,170.7885437,1628,18.24042702,1628,20.60390854,1628,49.80228043,1628,25.29247475,
1625,170.673172,1625,18.43911171,1625,20.91678429,1625,50.4829216,1625,25.56336212,
1622,172.4251862,1622,18.57798004,1622,20.83666229,1622,50.81945801,1622,25.8354702,
1619,171.7103577,1619,19.03953171,1619,20.57983208,1619,50.83634949,1619,26.31482124,
1616,173.0499573,1616,19.2648716,1616,20.5458107,1616,50.66781616,1616,26.66580009,
1613,173.0705872,1613,19.49623489,1613,20.54690361,1613,50.70836639,1613,26.97573662,
1610,174.9493866,1610,19.48242569,1610,21.08701706,1610,50.68062973,1610,26.9235096,
1607,175.4101715,1607,19.44906235,1607,21.35025406,1607,50.72652054,1607,27.16429138,
1604,177.057663,1604,19.31122589,1604,22.18062592,1604,51.0327034,1604,27.08407402,
1601,176.976593,1601,19.29462051,1601,21.81902885,1601,51.07279968,1601,27.08767128,
1598,178.3862762,1598,19.05109215,1598,21.65882683,1598,50.85570145,1598,26.85048294,
1595,177.7002258,1595,18.98971176,1595,20.86390495,1595,50.60343933,1595,26.71481895,
1592,179.2737427,1592,18.92464066,1592,20.88348198,1592,50.32667542,1592,26.60251236,
1589,179.3878632,1589,19.07542038,1589,21.00567818,1589,50.6789856,1589,26.23659897,
1586,181.6433411,1586,19.18493652,1586,21.41706467,1586,50.54286194,1586,26.37268829,
1583,181.6151123,1583,19.41654778,1583,22.10811806,1583,51.07590103,1583,25.98786736,
1580,182.8334656,1580,19.55883217,1580,21.91041756,1580,51.03377151,1580,26.17239571,
1577,182.8917542,1577,19.96770477,1577,22.15249825,1577,51.18420792,1577,25.88328362,
1574,183.331543,1574,20.21751213,1574,21.26193428,1574,50.79013824,1574,25.95127869,
1571,183.8661194,1571,20.35582352,1571,21.44643402,1571,50.75822449,1571,25.703228,
1568,184.6809692,1568,20.34546852,1568,21.36450958,1568,50.87797165,1568,25.82794762,
1565,186.1189728,1565,20.12748528,1565,21.66092491,1565,51.08977509,1565,25.70705032,
1562,186.5149231,1562,19.98585129,1562,21.97733688,1562,51.60018921,1562,25.6351738,
1559,187.6865387,1559,19.80005074,1559,21.592062,1559,51.9447403,1559,25.61321259,
1556,187.3607941,1556,19.78630638,1556,21.49313927,1556,51.88633347,1556,25.65406609,
1553,187.9754486,1553,19.58529282,1553,20.52139473,1553,51.79306793,1553,26.03318405,
1550,188.003891,1550,19.78320122,1550,20.74515343,1550,51.14833069,1550,25.99260712,
1547,189.3042145,1547,19.94181061,1547,20.67982101,1547,51.24011612,1547,26.35404778,
1544,190.2467499,1544,20.26864815,1544,21.10782051,1544,50.6503334,1544,26.25606346,
1541,191.269577,1541,20.47977638,1541,21.4286232,1541,50.87412643,1541,26.27442551,
1538,191.8709869,1538,20.63226318,1538,21.41106033,1538,49.9803009,1538,25.91413879,
1535,192.1110229,1535,20.87542343,1535,20.97373962,1535,49.51864624,1535,25.92470932,
1532,192.2677002,1532,20.96110344,1532,20.06836891,1532,48.46040344,1532,25.37106323,
1529,192.6991882,1529,20.92370987,1529,19.81701088,1529,47.86021042,1529,25.14661026,
1526,193.6529236,1526,20.78862381,1526,19.46613693,1526,47.24052429,1526,24.37711716,
1523,194.5355988,1523,20.53061485,1523,19.38328552,1523,46.97127151,1523,24.04613304,
1520,195.3955231,1520,20.44117546,1520,19.61309242,1520,46.710186,1520,23.25024223,
1517,196.0340118,1517,20.49960518,1517,19.69248772,1517,46.33114624,1517,22.93823433,
1514,196.458374,1514,20.62306976,1514,19.06873512,1514,45.76004028,1514,22.54169083,
1511,196.2070618,1511,20.82078934,1511,18.53041649,1511,45.24173737,1511,22.36480331,
1508,197.0331879,1508,21.10309601,1508,18.10311508,1508,44.42241287,1508,22.10746956,
1505,197.5531464,1505,21.38488197,1505,18.00315094,1505,43.89469528,1505,21.82335472,
1502,198.8001099,1502,21.540802,1502,17.62252808,1502,43.18985748,1502,21.67782402,
1499,199.6803284,1499,21.61490822,1499,17.73530769,1499,42.72357559,1499,21.50646019,
1496,199.9715881,1496,21.72529221,1496,17.23376656,1496,41.98501587,1496,21.27625656,
1493,200.7032928,1493,21.60564995,1493,16.62117195,1493,41.10377121,1493,20.96790123,
1490,200.2693481,1490,21.48324776,1490,16.15621948,1490,39.77884293,1490,20.66680527,
1487,200.8031311,1487,21.18431473,1487,15.57429314,1487,38.50031662,1487,20.36416245,
1484,201.5430756,1484,21.14115906,1484,15.51227379,1484,37.24864197,1484,19.98884583,
1481,202.3816376,1481,21.08289528,1481,15.08515739,1481,36.22516632,1481,19.43716812,
1478,203.4733734,1478,21.07372284,1478,15.17318821,1478,34.99869919,1478,18.83582306,
1475,203.4883423,1475,21.12999916,1475,14.67835617,1475,33.96886826,1475,18.01647186,
1472,203.6164551,1472,21.36129951,1472,14.26742363,1472,32.61931229,1472,17.46686554,
1469,203.5807343,1469,21.7339344,1469,13.56896782,1469,31.21957397,1469,16.75497055,
1466,203.5048676,1466,21.91724396,1466,12.87563038,1466,29.83665848,1466,16.21754074,
1463,204.4348755,1463,21.86438751,1463,12.49455357,1463,28.58877563,1463,15.5303936,
1460,205.3006134,1460,21.84061623,1460,12.23103905,1460,27.41347504,1460,14.87877083,
1457,206.0093231,1457,21.81632423,1457,12.16364574,1457,26.26536751,1457,14.3069582,
1454,207.0135193,1454,21.61065292,1454,11.77463531,1454,25.22497177,1454,13.82343578,
1451,206.7979279,1451,21.40363312,1451,11.48509789,1451,23.88917351,1451,13.35187531,
1448,206.8517151,1448,21.40905762,1448,11.01658535,1448,22.75834084,1448,12.78753567,
1445,207.3664856,1445,21.53125191,1445,10.79291821,1445,21.30705833,1445,12.38641262,
1442,206.7342987,1442,21.72012901,1442,10.43073654,1442,20.19357491,1442,11.94221973,
1439,208.0556183,1439,21.80397606,1439,10.09357452,1439,18.99147987,1439,11.57213497,
1436,208.8960114,1436,21.95003128,1436,9.893558502,1436,17.77064896,1436,11.1482687,
1433,208.8156738,1433,22.21434402,1433,9.622365952,1433,16.73101616,1433,10.70383835,
1430,209.7714386,1430,22.31865883,1430,9.627397537,1430,15.50824642,1430,10.24019527,
1427,209.5216064,1427,22.32388496,1427,9.459053993,1427,14.42226219,1427,9.718484879,
1424,208.8706512,1424,22.28210258,1424,9.271493912,1424,13.11255646,1424,9.372079849,
1421,210.6348724,1421,22.14882278,1421,9.180862427,1421,12.19859886,1421,8.827793121,
1418,212.1182251,1418,22.1214962,1418,9.094575882,1418,11.26806068,1418,8.459313393,
1415,211.7808533,1415,21.93836784,1415,8.88552475,1415,10.4477272,1415,7.991134167,
1412,213.1383972,1412,22.03718948,1412,8.776705742,1412,9.718546867,1412,7.583135605,
1409,213.3986053,1409,22.27127457,1409,8.552458763,1409,8.973154068,1409,7.221974373,
1406,213.1139069,1406,22.5085392,1406,8.599285126,1406,8.352416992,1406,6.873467445,
1403,212.3274384,1403,22.53345108,1403,8.479647636,1403,7.609021664,1403,6.435490608,
1400,211.8368225,1400,22.52325439,1400,8.521811485,1400,7.022777081,1400,6.086024284,
1397,213.2940826,1397,22.5478611,1397,8.40947628,1397,6.518392086,1397,5.940431118,
1394,218.3171997,1394,22.67374611,1394,8.454888344,1394,6.168838024,1394,5.688529015,
1391,215.7668304,1391,22.40620422,1391,8.255862236,1391,5.795416832,1391,5.481313705,
1388,214.5651398,1388,21.99359894,1388,8.201328278,1388,5.339784622,1388,5.190625191,
1385,213.9911194,1385,21.90888596,1385,8.007134438,1385,4.918039322,1385,4.945652008,
1382,217.9220886,1382,22.29410362,1382,8.053665161,1382,4.637422562,1382,4.876751423,
1379,218.3927002,1379,22.50859833,1379,8.070771217,1379,4.409944057,1379,4.659306049,
1376,217.9904175,1376,22.64131927,1376,8.03151226,1376,4.098069191,1376,4.428468704,
1373,216.5061035,1373,22.4406929,1373,7.992787838,1373,3.824996948,1373,4.240615845,
1370,217.1927948,1370,22.53108597,1370,7.891999245,1370,3.745310068,1370,4.052169323,
1367,218.8078003,1367,22.64414597,1367,7.915951252,1367,3.654430151,1367,4.000421047,
1364,216.3313599,1364,22.38932228,1364,7.729424477,1364,3.440197945,1364,3.776117325,
1361,212.8263245,1361,21.78105354,1361,7.599070072,1361,3.354576588,1361,3.571607113,
1358,211.7312164,1358,21.51758575,1358,7.562973976,1358,3.206340551,1358,3.434817791,
1355,211.3732758,1355,21.33048248,1355,7.48071003,1355,3.162735224,1355,3.298134327,
1352,211.5601501,1352,21.21101761,1352,7.490889549,1352,3.056754351,1352,3.232511997,
1349,214.3822479,1349,21.5804882,1349,7.512059212,1349,3.026299953,1349,3.117005587,
1346,215.3534393,1346,21.85599518,1346,7.584431648,1346,2.919791937,1346,3.046995401,
1343,216.8746033,1343,22.2549057,1343,7.619872093,1343,2.891154528,1343,3.036961079,
1340,217.7199097,1340,22.47179604,1340,7.614214897,1340,2.865394354,1340,2.96526885,
1337,218.8690491,1337,22.59508705,1337,7.58865118,1337,2.779339552,1337,2.966107845,
1334,220.5336304,1334,22.52890015,1334,7.614861488,1334,2.724451303,1334,2.923653603,
1331,221.9070129,1331,22.4133873,1331,7.61883831,1331,2.761724234,1331,2.905286074,
1328,222.481781,1328,22.35947418,1328,7.619549274,1328,2.734502554,1328,2.806937695,
1325,223.4759521,1325,22.36983871,1325,7.648606777,1325,2.70599246,1325,2.783891678,
1322,224.6053925,1322,22.6633873,1322,7.692814827,1322,2.734173775,1322,2.806564569,
1319,225.0400238,1319,22.93668938,1319,7.665656567,1319,2.627027512,1319,2.726700306,
1316,225.9909363,1316,23.26871109,1316,7.735921383,1316,2.706661701,1316,2.691425323,
1313,226.4664612,1313,23.26767349,1313,7.731919765,1313,2.681067944,1313,2.675054073,
1310,226.7096558,1310,23.11351967,1310,7.651082993,1310,2.652870178,1310,2.65832448,
1307,225.7700653,1307,22.84887505,1307,7.574342728,1307,2.621518135,1307,2.616219044,
1304,224.7102966,1304,22.56915665,1304,7.580039024,1304,2.577733994,1304,2.582010031,
1301,223.7970123,1301,22.49668312,1301,7.605947495,1301,2.589417934,1301,2.585230589,
1298,223.1634674,1298,22.60089874,1298,7.563148975,1298,2.579878807,1298,2.506840467,
1295,223.7873383,1295,22.58290863,1295,7.589528084,1295,2.5005548,1295,2.494837999,
1292,224.2324829,1292,22.87029839,1292,7.589957714,1292,2.540536642,1292,2.505749702,
1289,225.2429199,1289,22.95046806,1289,7.622066975,1289,2.584846973,1289,2.454154491,
1286,225.449234,1286,22.89254761,1286,7.54165554,1286,2.501132965,1286,2.468980312,
1283,226.1054077,1283,22.84319115,1283,7.580574036,1283,2.536483765,1283,2.417092323,
1280,226.3825684,1280,22.83298492,1280,7.688561916,1280,2.519004345,1280,2.418064356,
1277,225.9598541,1277,22.77952576,1277,7.721384525,1277,2.477932453,1277,2.428624153,
1274,226.1120605,1274,22.7706337,1274,7.76276207,1274,2.380197048,1274,2.38932538,
1271,226.3254852,1271,22.84082413,1271,7.704839706,1271,2.471635103,1271,2.437855244,
1268,227.3573914,1268,22.8880024,1268,7.684565544,1268,2.441127777,1268,2.438273668,
1265,227.8791504,1265,22.99022865,1265,7.653590202,1265,2.517325401,1265,2.358589888,
1262,228.5177307,1262,23.16194344,1262,7.566820621,1262,2.434095383,1262,2.329990387,
1259,228.3482819,1259,23.06241989,1259,7.505224705,1259,2.455518007,1259,2.369864464,
1256,227.9863892,1256,23.15124512,1256,7.545298576,1256,2.45108676,1256,2.440868616,
1253,227.9986572,1253,23.11974907,1253,7.458238125,1253,2.366616011,1253,2.341045856,
1250,228.2491913,1250,23.13172722,1250,7.36167717,1250,2.416750908,1250,2.358401299,
1247,229.3420105,1247,23.13378525,1247,7.375215054,1247,2.440681458,1247,2.320431709,
1244,229.788559,1244,23.13406563,1244,7.262056351,1244,2.434209585,1244,2.344035864,
1241,230.2072754,1241,23.21158409,1241,7.13140583,1241,2.407258272,1241,2.329324007,
1238,230.2272797,1238,23.29781532,1238,7.224547863,1238,2.411313534,1238,2.329046011,
1235,229.7958832,1235,23.35513496,1235,7.148293972,1235,2.371799231,1235,2.253512621,
1232,229.8736115,1232,23.29205894,1232,7.070957184,1232,2.407504082,1232,2.324000359,
1229,230.4509125,1229,23.27962685,1229,7.085137844,1229,2.379051685,1229,2.309780836,
1226,231.30896,1226,23.25066376,1226,7.087005138,1226,2.341515779,1226,2.277527094,
1223,231.7433624,1223,23.17923355,1223,7.04883337,1223,2.415889025,1223,2.243423223,
1220,231.9821777,1220,23.30454636,1220,6.990043163,1220,2.418831825,1220,2.314177036,
1217,232.1169128,1217,23.33257866,1217,6.951891422,1217,2.294583082,1217,2.336845636,
1214,231.3657074,1214,23.48974228,1214,6.894677162,1214,2.386682034,1214,2.309072256,
1211,231.7021179,1211,23.62543106,1211,6.797430038,1211,2.375859499,1211,2.291977882,
1208,231.985611,1208,23.53507996,1208,6.794345379,1208,2.317676306,1208,2.290943146,
1205,232.8828735,1205,23.480093,1205,6.67641449,1205,2.328256607,1205,2.273658276,
1202,233.6641846,1202,23.39761353,1202,6.608999729,1202,2.419529438,1202,2.258994102,
1199,233.9556427,1199,23.44950676,1199,6.547227383,1199,2.410082579,1199,2.235772371,
1196,226.6126404,1196,22.92864799,1196,6.339421749,1196,2.256359339,1196,2.18873024,
1193,226.9076843,1193,22.9579258,1193,6.329342842,1193,2.265430927,1193,2.167646646,
1190,227.6578217,1190,22.85821533,1190,6.3433671,1190,2.251801729,1190,2.179274797,
1187,228.0411682,1187,22.84876633,1187,6.249691486,1187,2.258021355,1187,2.143475056,
1184,227.9586029,1184,22.84542084,1184,6.149628162,1184,2.331297398,1184,2.178177834,
1181,227.8222809,1181,22.84101677,1181,6.140125751,1181,2.204955101,1181,2.194413662,
1178,227.195694,1178,22.95599937,1178,6.160235405,1178,2.226829052,1178,2.136395216,
1175,226.8494568,1175,22.94301033,1175,6.159081459,1175,2.258963585,1175,2.169067383,
1172,227.2154083,1172,23.00204277,1172,6.18440485,1172,2.170386076,1172,2.145325184,
1169,227.999115,1169,22.82260513,1169,6.162986279,1169,2.227143049,1169,2.134036541,
1166,228.4449615,1166,22.79673004,1166,6.165012836,1166,2.20650816,1166,2.14861083,
1163,228.5238953,1163,22.68696594,1163,6.206406593,1163,2.194897413,1163,2.13380599,
1160,228.6664276,1160,22.68869209,1160,6.239872456,1160,2.184480906,1160,2.129414558,
1157,228.1096191,1157,22.76784897,1157,6.271249771,1157,2.195727348,1157,2.104108334,
1154,227.7579498,1154,22.70392418,1154,6.210659981,1154,2.199765682,1154,2.156036615,
1151,227.6879578,1151,22.69286728,1151,6.288618088,1151,2.167049646,1151,2.068502665,
1148,228.6313324,1148,22.65339279,1148,6.363223553,1148,2.184624434,1148,2.092512608,
1145,229.181427,1145,22.60937309,1145,6.377810955,1145,2.141089916,1145,2.107756853,
1142,228.7489624,1142,22.62445259,1142,6.297364235,1142,2.167880535,1142,2.084640741,
1139,229.0295563,1139,22.72396469,1139,6.297413826,1139,2.19752574,1139,2.064694166,
1136,228.3078918,1136,22.7423439,1136,6.271547318,1136,2.154993773,1136,2.074314833,
1133,228.3098755,1133,22.66638947,1133,6.303270817,1133,2.189242125,1133,2.077093363,
1130,228.1923828,1130,22.64317322,1130,6.335221291,1130,2.166507721,1130,1.987840414,
1127,228.0532532,1127,22.53397179,1127,6.307783604,1127,2.102885008,1127,2.067083597,
1124,228.5121918,1124,22.47478485,1124,6.226519585,1124,2.128750563,1124,2.022043228,
1121,228.7610474,1121,22.50012589,1121,6.129356861,1121,2.125885963,1121,2.059800625,
1118,228.4740448,1118,22.58193207,1118,6.154248714,1118,2.149523497,1118,2.038232327,
1115,227.7158966,1115,22.55714417,1115,6.244153976,1115,2.107150555,1115,1.98692441,
1112,227.644043,1112,22.60274124,1112,6.193233967,1112,2.116902828,1112,2.032320976,
1109,227.9958038,1109,22.58013535,1109,6.074934483,1109,2.124465704,1109,1.952634931,
1106,228.833313,1106,22.63699913,1106,6.124011993,1106,2.1388731,1106,2.014629364,
1103,229.477829,1103,22.66397285,1103,6.102401257,1103,2.114548206,1103,1.996969104,
1100,229.8965912,1100,22.62393761,1100,6.07314539,1100,2.114311457,1100,1.967689157,
1097,229.7638397,1097,22.57603645,1097,6.058879375,1097,2.095325947,1097,1.947216511,
1094,229.0047455,1094,22.58632469,1094,5.948004723,1094,2.021969557,1094,1.931640863,
1091,228.7146606,1091,22.66058159,1091,6.01988554,1091,1.984868169,1091,1.966542363,
1088,228.7549286,1088,22.67403221,1088,5.968432426,1088,1.973317981,1088,1.904809237,
1085,229.4482727,1085,22.74478149,1085,5.935418606,1085,1.969352007,1085,1.935330629,
1082,229.8005371,1082,22.59434319,1082,5.787212849,1082,2.026694536,1082,1.933450103,
1079,230.1486664,1079,22.59315491,1079,5.671494484,1079,2.020997763,1079,1.969215512,
1076,230.1564484,1076,22.4805603,1076,5.709186554,1076,2.025243759,1076,1.951601028,
1073,229.7084808,1073,22.61380577,1073,5.743422031,1073,1.975230932,1073,1.903019428,
1070,229.5065155,1070,22.58354187,1070,5.639221191,1070,1.999180913,1070,1.913709402,
1067,229.7290344,1067,22.67786789,1067,5.558450699,1067,2.003857851,1067,1.958813667,
1064,230.0463409,1064,22.61101532,1064,5.547616005,1064,2.025117159,1064,1.909736037,
1061,230.4940033,1061,22.48391342,1061,5.677662373,1061,1.979286075,1061,1.894841313,
1058,230.899765,1058,22.44074631,1058,5.635211945,1058,2.001606941,1058,1.924251199,
1055,231.0546875,1055,22.49500847,1055,5.533797264,1055,1.999590516,1055,1.879414678,
1052,230.8037262,1052,22.64886665,1052,5.499356747,1052,1.947781682,1052,1.911617279,
1049,230.289978,1049,22.73566818,1049,5.599701881,1049,1.934034586,1049,1.975012898,
1046,230.4033813,1046,22.78199387,1046,5.696118355,1046,1.973172665,1046,1.94647038,
1043,230.892868,1043,22.63960838,1043,5.675136089,1043,1.920502782,1043,1.881875277,
1040,231.9248657,1040,22.62349319,1040,5.53588295,1040,1.932011724,1040,1.877442241,
1037,232.1743469,1037,22.62675476,1037,5.563598156,1037,1.954856515,1037,1.966539621,
1034,232.1410675,1034,22.7779007,1034,5.752954483,1034,1.927269816,1034,1.875253201,
1031,232.0680847,1031,22.96514893,1031,5.624023438,1031,1.950543761,1031,1.923855901,
1028,231.6651764,1028,22.89343262,1028,5.532596111,1028,1.917233706,1028,1.824786305,
1025,232.1164856,1025,22.85311508,1025,5.554689884,1025,1.934338927,1025,1.870361567,
1022,232.535553,1022,22.81417465,1022,5.708134651,1022,1.990552783,1022,1.903245568,
1019,233.4393463,1019,22.90073204,1019,5.70720005,1019,1.897116542,1019,1.889501691,
1016,233.8439484,1016,22.93586922,1016,5.630739212,1016,1.898635149,1016,1.843996882,
1013,234.2294006,1013,22.99503708,1013,5.647370815,1013,1.977618814,1013,1.85857141,
1010,234.2392883,1010,22.91838455,1010,5.783364773,1010,1.887264252,1010,1.824935913,
1007,233.9441223,1007,22.94907379,1007,5.838950157,1007,1.929991841,1007,1.883418441,
1004,234.5639954,1004,23.12902069,1004,5.696481705,1004,1.940121174,1004,1.91392529,
1001,234.7749023,1001,23.18549347,1001,5.687700272,1001,1.98293829,1001,1.836449504,
998,235.6653442,998,23.08516884,998,5.847063541,998,2.060836554,998,1.883141756,
995,235.8031311,995,22.93631363,995,5.76005125,995,2.075361967,995,1.824883938,
992,236.2142029,992,22.93135071,992,5.690344334,992,2.145603657,992,1.84654057,
989,235.3729248,989,22.95150757,989,5.846699715,989,2.183970928,989,1.877688766,
986,235.0853882,986,23.13937569,986,5.83052063,986,2.247411966,986,1.821876287,
983,235.2294006,983,23.09414673,983,5.983401299,983,2.399602413,983,1.816283703,
980,235.204895,980,22.84733582,980,6.054706097,980,2.515787125,980,1.810720205,
977,236.0799255,977,22.79234505,977,6.238794327,977,2.638285398,977,1.769649625,
974,236.8835144,974,22.9682827,974,6.506139755,974,2.883030415,974,1.833291292,
971,237.1045074,971,23.00953484,971,6.568818569,971,3.166474819,971,1.763784289,
968,237.3367615,968,23.13058281,968,6.883198738,968,3.566764355,968,1.833203793,
965,237.614151,965,23.115345,965,6.931794643,965,3.925704479,965,1.630597234,
962,237.752243,962,23.07689857,962,7.278119087,962,4.314905167,962,1.792542815,
959,239.0427399,959,23.32740784,959,7.644495964,959,4.85065937,959,1.787629962,
956,239.6648865,956,23.40120125,956,7.953305721,956,5.415382385,956,1.796063423,
953,240.4651337,953,23.36893654,953,8.158321381,953,5.971194267,953,1.646783352,
950,240.3143005,950,23.37890816,950,8.727555275,950,6.69035387,950,1.842643857,
947,240.9067841,947,23.52142715,947,8.814595222,947,7.339624405,947,1.688151956,
944,240.3945923,944,23.6456871,944,9.107221603,944,8.158846855,944,1.646710396,
941,240.5248108,941,23.7081089,941,9.114134789,941,8.911489487,941,1.555055022,
938,241.3208008,938,23.67077827,938,9.471951485,938,9.84787941,938,1.694098711,
935,243.4683838,935,23.6983757,935,9.789927483,935,11.08789635,935,1.56748271,
932,244.7930756,932,23.83045769,932,10.53576565,932,12.04219341,932,1.539995193,
929,245.3701782,929,24.16521072,929,10.89274406,929,13.07691479,929,1.516175032,
926,246.5237885,926,23.91498566,926,10.80640221,926,14.34812546,926,1.665668249,
923,247.5387878,923,24.17074394,923,10.89440155,923,15.43168259,923,1.580631018,
920,248.8059692,920,24.49320602,920,10.86540699,920,16.78614998,920,1.770554662,
917,249.3156891,917,24.6575489,917,10.88901138,917,17.93144417,917,1.647118092,
914,250.2880859,914,24.79444695,914,10.87764454,914,18.9820919,914,1.58874464,
911,252.1497955,911,24.85198593,911,11.1315527,911,19.95115089,911,1.917326093,
908,253.0848083,908,24.78354263,908,11.19581413,908,21.01454353,908,1.592486024,
905,254.0368347,905,25.35962486,905,10.44353008,905,22.22617722,905,1.786490917,
902,254.4696808,902,25.33586884,902,10.21107483,902,22.91869736,902,1.688628793,
899,256.5888062,899,25.5374279,899,9.453149796,899,23.67582703,899,1.946684122,
896,258.2115173,896,25.50837708,896,9.103579521,896,24.42374611,896,2.061760902,
893,258.8024597,893,25.7827282,893,8.166495323,893,24.70610809,893,1.651012182,
890,261.0005188,890,26.23829269,890,7.751055241,890,25.05543137,890,2.378084898,
887,263.4925537,887,25.95531654,887,7.0883708,887,24.21770859,887,2.053770542,
884,263.4231567,884,26.89061165,884,6.25078249,884,24.63777733,884,1.612773299,
881,267.3839722,881,26.13275337,881,5.246670723,881,23.13183784,881,1.771004438,
878,268.2065735,878,26.91094208,878,4.344263077,878,21.3868618,878,2.182943821,
875,269.5026855,875,27.20103836,875,4.623313427,875,20.19307518,875,1.997987151,
872,272.0653687,872,27.2928009,872,3.688197136,872,17.24356842,872,2.26268816,
869,273.6113892,869,27.24965286,869,2.774111748,869,14.31410599,869,2.840976954,
866,277.7480774,866,27.16691589,866,2.039485216,866,12.76130199,866,3.711974144,
863,279.4413452,863,27.83864975,863,3.017480612,863,9.114608765,863,2.72944808,
860,278.6513672,860,27.67504501,860,2.05598402,860,7.647447109,860,2.4775033,
857,282.0257874,857,29.1490612,857,2.034661293,857,5.25064373,857,3.275803566,
854,283.5079041,854,27.66667938,854,2.573097467,854,5.17948103,854,2.644947767,
851,284.5809937,851,29.93807793,851,2.655663252,851,3.490043163,851,2.896090269,
848,286.4742737,848,29.04595947,848,3.518022299,848,2.935054541,848,4.163303852,
845,289.2859192,845,29.82402992,845,3.986557961,845,2.82895422,845,3.454567909,
842,289.7923584,842,29.8684845,842,3.614678144,842,3.85371232,842,3.210502148,
839,297.3522034,839,29.09383774,839,2.538486242,839,2.4737885,839,3.944664478,
836,294.7617493,836,30.56334877,836,3.499080896,836,3.8518641,836,3.261899948,
833,300.3876343,833,30.01541519,833,4.882456303,833,4.176123619,833,3.68210125,
830,300.9541321,830,30.92845917,830,4.305973053,830,2.780706167,830,2.874712944,
827,303.0968018,827,30.57759476,827,2.705621243,827,3.922748089,827,3.717153788,
824,309.9441833,824,32.4981575,824,4.620255947,824,4.713717461,824,3.485710859,
821,307.6333008,821,31.32094765,821,3.325127125,821,4.785661221,821,3.721235275,
818,311.0096741,818,32.87314224,818,5.337140083,818,5.376331329,818,4.460769653,
815,320.5787048,815,33.50555801,815,3.052069902,815,4.121891022,815,5.063323498,
812,317.8138123,812,31.96994972,812,2.580986023,812,6.542653561,812,3.72187376,
809,342.4597168,809,35.60873795,809,3.993313074,809,6.360690117,809,4.877861023,
806,335.876709,806,34.52556992,806,3.583902597,806,3.508471966,806,4.751888275,
803,352.2979431,803,35.89316177,803,4.627322674,803,7.103336811,803,5.61456871,
800,359.2674866,800,36.86697006,800,5.036597729,800,6.164587975,800,3.321798563,
798,432.1976624,798,35.74875259,798,0.648009479,798,0.4256927073,798,0.3998922706,
796,438.1355896,796,34.90019608,796,0.6026110649,796,0.4187684953,796,0.4290987849,
794,431.9957886,794,36.88341904,794,0.6230585575,794,0.4495476782,794,0.4194328487,
792,431.5193176,792,36.00373459,792,0.5773332715,792,0.4294753969,792,0.3829016685,
790,440.4396667,790,34.37634659,790,0.5911636353,790,0.4312462211,790,0.3474598825,
788,431.4882202,788,35.5796051,788,0.5704294443,788,0.4419290125,788,0.3484662771,
786,433.0275879,786,35.72618484,786,0.5369423628,786,0.4605758488,786,0.385206461,
784,432.1753845,784,35.78626251,784,0.5510067344,784,0.4400174022,784,0.4081518948,
782,439.8829346,782,34.94587708,782,0.5791622996,782,0.4355954528,782,0.3856901526,
780,432.7955322,780,33.92325211,780,0.5531229973,780,0.4203386009,780,0.3441365063,
778,435.1269836,778,34.76231766,778,0.5852329731,778,0.4028996825,778,0.3479296565,
776,434.6150818,776,36.12527084,776,0.5296350121,776,0.4208776951,776,0.3682508171,
774,438.1677551,774,34.2554512,774,0.5454580784,774,0.4389761984,774,0.4051217437,
772,431.6726685,772,33.82567215,772,0.5587197542,772,0.3832027316,772,0.3530437648,
770,438.4479065,770,34.92955399,770,0.5816860795,770,0.4112761915,770,0.4103166461,
768,433.0459595,768,34.14119339,768,0.539814651,768,0.4255815744,768,0.360956043,
766,437.8228149,766,34.44797134,766,0.55586344,766,0.3627773225,766,0.3651588559,
764,431.2335815,764,33.66654968,764,0.5559428334,764,0.4010573626,764,0.3652410805,
762,440.0184021,762,33.27419662,762,0.5120216012,762,0.375243336,762,0.3389039636,
760,432.3048706,760,34.15773392,760,0.5058177114,760,0.4326923192,760,0.3298588693,
758,435.849762,758,34.05133057,758,0.5567910671,758,0.4142000675,758,0.3259629607,
756,432.5223083,756,32.53261566,756,0.5224142075,756,0.3903991878,756,0.309171617,
754,437.7407532,754,31.90915298,754,0.5518838763,754,0.3889625072,754,0.3539607227,
752,437.4512329,752,33.53820801,752,0.5050313473,752,0.3935665488,752,0.3284525871,
750,432.1755066,750,32.61428833,750,0.5453830361,750,0.3884782493,750,0.3520077169,
748,438.1280823,748,31.39515877,748,0.5106037855,748,0.3643528223,748,0.325020045,
746,436.1281738,746,31.01954842,746,0.5020400286,746,0.4062211514,746,0.3421450257,
744,436.605072,744,31.65991592,744,0.5143558383,744,0.4101647437,744,0.3636061251,
742,435.6168823,742,31.22686386,742,0.4995611906,742,0.378757,742,0.335346669,
740,435.0186462,740,29.85310936,740,0.4592560232,740,0.353818804,740,0.3313620687,
738,438.3746033,738,29.46108246,738,0.4990153015,738,0.3840430975,738,0.3277420104,
736,434.9368896,736,30.23750687,736,0.4697787166,736,0.3688468933,736,0.3438218832,
734,433.2765198,734,29.31307793,734,0.4899226129,734,0.3774671555,734,0.3310641646,
732,439.4400635,732,27.88753128,732,0.4739016294,732,0.3627021313,732,0.3003462553,
730,435.3721619,730,27.78532791,730,0.4771583676,730,0.3702524304,730,0.3259388208,
728,435.0880737,728,28.140625,728,0.4722565413,728,0.3576752543,728,0.3177131414,
726,437.215271,726,27.08359146,726,0.4572505951,726,0.35569188,726,0.3286298513,
724,437.6349487,724,26.17132568,724,0.4585904479,724,0.3518489301,724,0.3021755517,
722,434.6534119,722,25.98539352,722,0.458928436,722,0.3421572745,722,0.2914716005,
720,434.8784485,720,25.9996109,720,0.4535827637,720,0.3366179168,720,0.3056738377,
718,438.260498,718,24.63438797,718,0.4526825547,718,0.3474198282,718,0.2902460396,
716,436.9541016,716,24.30839539,716,0.4414507747,716,0.3523707688,716,0.3080260158,
714,433.1836548,714,24.19125175,714,0.4462530017,714,0.356444329,714,0.283523798,
712,435.7214355,712,23.72604561,712,0.401745826,712,0.3485080004,712,0.2963347733,
710,437.7642212,710,22.69327354,710,0.42493698,710,0.3245547712,710,0.2900384665,
708,436.193512,708,22.11609268,708,0.4446460903,708,0.3272279501,708,0.2948134243,
706,433.7548828,706,22.13495445,706,0.404604584,706,0.3295505941,706,0.3032910526,
704,435.1279602,704,21.32344437,704,0.4221203327,704,0.3337796628,704,0.2908968925,
702,435.835022,702,20.49739838,702,0.4071845114,702,0.3302080929,702,0.2902120948,
700,434.3639832,700,20.40039063,700,0.3946096599,700,0.3187084198,700,0.275759995,
698,436.2040405,698,19.90656281,698,0.4161229432,698,0.3302221894,698,0.274758637,
696,436.2599792,696,18.96772003,696,0.3866223991,696,0.3060689867,696,0.2745706439,
694,434.744751,694,18.54493523,694,0.3949913085,694,0.3076763451,694,0.2895621359,
692,435.0227966,692,18.51524353,692,0.3884721696,692,0.294585973,692,0.2657223046,
690,436.671875,690,17.63012314,690,0.3802091181,690,0.2995274663,690,0.2745641768,
688,435.5204468,688,16.87908936,688,0.3645061553,688,0.2951702476,688,0.2706786692,
686,432.0368347,686,16.76576424,686,0.36171332,686,0.3054258227,686,0.2607641518,
684,436.7160339,684,16.20286751,684,0.3600309789,684,0.3014913499,684,0.2521356642,
682,436.175293,682,15.47360134,682,0.3435337543,682,0.2969632745,682,0.2710792124,
680,433.3295898,680,15.39537048,680,0.360383749,680,0.2942333221,680,0.2611563504,
678,433.9787903,678,14.99578953,678,0.3446834087,678,0.3065294921,678,0.2473085821,
676,436.0913391,676,14.1054039,676,0.3486018479,676,0.2858713865,676,0.2552478909,
674,434.8601379,674,13.77992153,674,0.3358459175,674,0.2891325653,674,0.2458652258,
672,433.0172119,672,13.61486053,672,0.3347863853,672,0.2871963084,672,0.2438787669,
670,436.7430115,670,12.91787052,670,0.3322277367,670,0.2756551802,670,0.2594116032,
668,435.3049622,668,12.58105087,668,0.3235952556,668,0.2764790952,668,0.2379222065,
666,431.4072571,666,12.47497749,666,0.3220640421,666,0.2788769603,666,0.2406047136,
664,434.3989868,664,11.94705486,664,0.328602016,664,0.2771873772,664,0.2421568334,
662,434.84021,662,11.57090855,662,0.3132935166,662,0.2795204222,662,0.2352757454,
660,433.0982666,660,11.57612324,660,0.316016525,660,0.2703311741,660,0.2286723852,
658,433.2885132,658,11.27195549,658,0.3205353022,658,0.2689817548,658,0.2338835448,
656,435.0901489,656,10.94303703,656,0.3028872311,656,0.2688543499,656,0.225485906,
654,434.4822388,654,10.97842693,654,0.304782927,654,0.2489628941,654,0.231066063,
652,434.2376099,652,10.78858566,652,0.3054575622,652,0.2572448254,652,0.2338959426,
650,435.085022,650,10.63555717,650,0.3005677462,650,0.2588979602,650,0.2296139747,
648,435.5428772,648,10.70662022,648,0.2912065387,648,0.2623512447,648,0.2258131802,
646,437.1468201,646,10.53248787,646,0.2986323535,646,0.2559241951,646,0.223129496,
644,436.4752197,644,10.61973953,644,0.2916683853,644,0.2583300769,644,0.2250102311,
642,437.8599548,642,10.83076,642,0.2911185324,642,0.2506272495,642,0.2199356705,
640,440.7488708,640,10.74010181,640,0.2830854356,640,0.2485162765,640,0.2178654373,
638,441.1626892,638,11.02767467,638,0.2879598439,638,0.2517660558,638,0.2124932855,
636,439.8451843,636,11.3404026,636,0.2868698537,636,0.2449225634,636,0.2112258971,
634,442.1996155,634,11.38292313,634,0.2794876695,634,0.2432977855,634,0.2068803161,
632,443.1434021,632,11.90728569,632,0.2727077901,632,0.2356119454,632,0.2118715793,
630,443.6972046,630,12.33151054,630,0.2799296379,630,0.2291591763,630,0.2036384791,
628,443.3432922,628,12.47827148,628,0.2734942734,628,0.2332580984,628,0.2017112374,
626,443.6931152,626,13.18289757,626,0.2673523128,626,0.233561039,626,0.1969887167,
624,442.2135315,624,13.6029911,624,0.264586091,624,0.2286571264,624,0.1954995096,
622,440.7601013,622,14.08339119,622,0.260792166,622,0.2250934541,622,0.1962070614,
620,441.4311523,620,14.86759186,620,0.2695246041,620,0.2175092697,620,0.192077145,
618,440.3812256,618,15.13759232,618,0.2673591375,618,0.2134335935,618,0.1890377402,
616,435.5594482,616,16.1386528,616,0.2683605552,616,0.2086094618,616,0.1883573532,
614,436.2705688,614,16.70448685,614,0.2525605261,614,0.2089104652,614,0.1805343926,
612,436.9985046,612,17.02432251,612,0.25665012,612,0.2044135034,612,0.1725767106,
610,432.2723999,610,18.18066025,610,0.2569253445,610,0.2046171874,610,0.1767875403,
608,432.7905579,608,18.58981705,608,0.2535412908,608,0.1991803497,608,0.1764994711,
606,432.0911865,606,19.43908882,606,0.2562548816,606,0.1943842173,606,0.1749976873,
604,432.993042,604,20.31459618,604,0.2557699084,604,0.1917782277,604,0.1680493504,
602,430.6304321,602,20.9252243,602,0.258241266,602,0.1861604005,602,0.1723662764,
600,435.2965393,600,22.49888992,600,0.2492044568,600,0.1857257187,600,0.1652880013,
598,435.6514893,598,22.31237984,598,0.2465257943,598,0.1910691708,598,0.1681499481,
596,439.9998169,596,24.06310654,596,0.2612749934,596,0.1914683133,596,0.1664442569,
594,441.5442505,594,24.26012039,594,0.2484755814,594,0.1821340024,594,0.1648864299,
592,447.6047363,592,25.24026108,592,0.2475184202,592,0.1778649241,592,0.1625934988,
590,449.7954712,590,25.944561,590,0.2465874702,590,0.1792368293,590,0.1565916091,
588,453.5169678,588,26.07552147,588,0.2472425401,588,0.1827326417,588,0.1552928984,
586,454.9254456,586,27.42622757,586,0.2469372302,586,0.1676086932,586,0.1543433815,
584,454.3856506,584,26.64207268,584,0.2395157516,584,0.1675958782,584,0.1565592289,
582,456.1479492,582,27.95595169,582,0.2484016567,582,0.1677082032,582,0.1524520367,
580,452.1437073,580,26.98600578,580,0.2230385244,580,0.1487616748,580,0.1478248686,
578,450.2791748,578,27.41235542,578,0.230692625,578,0.1585670561,578,0.1304885447,
576,449.0637817,576,26.61635971,576,0.2187124044,576,0.1453920603,576,0.1299988776,
574,446.0103455,574,26.45674324,574,0.2125059068,574,0.1431929916,574,0.1260961294,
572,442.3407898,572,26.01477814,572,0.2041506171,572,0.1316640228,572,0.1270441264,
570,441.4620056,570,25.41762352,570,0.1885146946,570,0.1226394475,570,0.1109582931,
568,437.7550964,568,25.41236305,568,0.1754419208,568,0.1145007089,568,0.1061466634,
566,437.6023254,566,24.39337158,566,0.1686145514,566,0.1091572344,566,0.098127231,
564,435.6513977,564,24.27527237,564,0.1590716392,564,0.09588909149,564,0.09143025428,
562,433.7744751,562,23.57602501,562,0.1656546891,562,0.09372135252,562,0.09521884471,
560,435.3736877,560,23.90680313,560,0.1505193263,560,0.08732715249,560,0.09392789006,
558,434.1256104,558,22.77619171,558,0.1420490444,558,0.09129154682,558,0.0865438059,
556,432.9806824,556,22.93292809,556,0.1478589177,556,0.0764079541,556,0.07434829324,
554,430.9020996,554,22.17956352,554,0.1344180405,554,0.08870247006,554,0.07763751596,
552,433.8341675,552,22.31181335,552,0.1413189769,552,0.07578416914,552,0.07257275283,
550,432.5473633,550,21.59444427,550,0.1211688966,550,0.07778368145,550,0.07748050988,
548,430.9000854,548,21.7951107,548,0.1315927207,548,0.07031467557,548,0.0750207603,
546,433.2918091,546,21.32621574,546,0.1247477978,546,0.07298246771,546,0.07069908828,
544,424.4483337,544,20.67858505,544,0.1231644452,544,0.08063048869,544,0.06207188219,
542,424.0151367,542,20.50807571,542,0.1205045357,542,0.0706351772,542,0.06567469239,
540,425.5330505,540,20.44095993,540,0.1250763834,540,0.07677443326,540,0.06790183485,
538,428.711853,538,20.41214943,538,0.1167583838,538,0.07131165266,538,0.07562446594,
536,426.9654236,536,19.97215652,536,0.120059438,536,0.0629407838,536,0.0696285367,
534,426.9740601,534,20.60218811,534,0.1318011135,534,0.06893043965,534,0.06552959234,
532,429.9891357,532,19.94402504,532,0.1245648563,532,0.06348733604,532,0.06122479588,
530,428.7632446,530,20.3368187,530,0.1181786209,530,0.06197205558,530,0.0670587495,
528,427.0808716,528,20.47350121,528,0.1197659075,528,0.06785591692,528,0.06037897617,
526,427.781189,526,20.41893959,526,0.1107790992,526,0.06687694043,526,0.07018387318,
524,428.0079956,524,20.54826736,524,0.1206205338,524,0.05661093816,524,0.05561064556,
522,427.1573486,522,20.33130455,522,0.125744909,522,0.05319481716,522,0.05486818403,
520,426.8988953,520,20.8813839,520,0.1139342636,520,0.06357529014,520,0.06011617929,
518,428.0312195,518,20.58287811,518,0.1179011688,518,0.0688214004,518,0.05430589244,
516,427.4309998,516,20.92192459,516,0.121972464,516,0.06400024891,516,0.06026112288,
514,428.1161804,514,21.5715847,514,0.1211499795,514,0.06949950755,514,0.05659528449,
512,426.3317261,512,21.42617989,512,0.1197088659,512,0.05863149837,512,0.05583623424,
510,427.8632202,510,21.7268219,510,0.1181390956,510,0.06239619106,510,0.06492966413,
508,427.9006042,508,22.03488541,508,0.1158755422,508,0.05796593055,508,0.05294069275,
506,427.2845154,506,21.82851028,506,0.1079677045,506,0.05675635114,506,0.06085444614,
504,426.9395447,504,22.28400803,504,0.1194701046,504,0.06051846966,504,0.05575194955,
502,427.226593,502,22.53994942,502,0.1243014336,502,0.0533179976,502,0.05207009986,
500,426.422699,500,22.41675377,500,0.1094866544,500,0.05509253964,500,0.04309783131,
498,425.4580383,498,22.88234329,498,0.1136117727,498,0.05802188069,498,0.04401870817,
496,427.6356812,496,22.7630825,496,0.1103873923,496,0.05245095864,496,0.04873200506,
494,427.4882813,494,22.46522141,494,0.1119096726,494,0.05316613242,494,0.0468043685,
492,424.9431763,492,22.55260468,492,0.1149057895,492,0.04865376279,492,0.04073941708,
490,427.0396118,490,22.52178955,490,0.1194942296,490,0.05648820102,490,0.05025766417,
488,426.3154602,488,22.14008331,488,0.1103716418,488,0.05280464515,488,0.0410948284,
486,426.012146,486,21.50290108,486,0.1097222194,486,0.04594308883,486,0.04284277186,
484,425.7420654,484,20.79744339,484,0.108613275,484,0.03954288363,484,0.0441086404,
482,424.6253052,482,19.25364685,482,0.1005476564,482,0.04401139915,482,0.03765564039,
480,425.1544495,480,17.26413727,480,0.09470123053,480,0.05018597469,480,0.03150047734,
478,423.5394897,478,14.79864693,478,0.0898225978,478,0.04419707134,478,0.04738099128,
476,422.7330627,476,12.50842857,476,0.07816801965,476,0.04783522338,476,0.04554600641,
474,425.7964478,474,10.30586529,474,0.06845142692,474,0.04304131866,474,0.03690220416,
472,424.2486572,472,8.575754166,472,0.07162503153,472,0.03979708254,472,0.04935678467,
470,423.5795593,470,6.989627361,470,0.06564381719,470,0.04871473461,470,0.0410788469,
468,424.5838013,468,5.836769581,468,0.06162191927,468,0.04222689569,468,0.03377272189,
466,425.0081177,466,4.821116447,466,0.06064800546,466,0.03757326305,466,0.02635290474,
464,422.400238,464,4.115392208,464,0.05149979889,464,0.04070352763,464,0.04223154858,
462,423.7114868,462,3.52635932,462,0.05821382999,462,0.03672136366,462,0.03014272638,
460,424.3485107,460,3.15495944,460,0.04914532602,460,0.03831213713,460,0.04221457615,
458,422.848877,458,2.97821641,458,0.0494428277,458,0.03743559495,458,0.03097843379,
456,421.8216858,456,2.845123291,456,0.04602270946,456,0.0318284668,456,0.02675094269,
454,422.5825806,454,2.569556713,454,0.04804386199,454,0.0405607298,454,0.03082048148,
452,422.8937683,452,2.180400372,452,0.04245255142,452,0.03593018278,452,0.03492345661,
450,422.0125122,450,1.743988872,450,0.04291217029,450,0.03357353806,450,0.02662730031,
448,422.7523804,448,1.45122385,448,0.04407646134,448,0.0376647152,448,0.03613899276,
446,423.9269714,446,1.281181812,446,0.034450721,446,0.02915492468,446,0.03213434666,
444,421.5781555,444,1.23894453,444,0.03815096989,444,0.0354276225,444,0.02788093686,
442,420.5277405,442,1.225828528,442,0.03307787701,442,0.02595639415,442,0.0307881739,
440,422.1506653,440,1.219731808,440,0.04039572552,440,0.02736502141,440,0.03008726984,
438,423.3723755,438,1.218305588,438,0.03738543391,438,0.03467122093,438,0.03403895348,
436,421.7013855,436,1.23324883,436,0.02946209535,436,0.02632378042,436,0.02288028412,
434,421.2677612,434,1.246323466,434,0.03776722401,434,0.01905467734,434,0.0350295864,
432,425.1905823,432,1.226074576,432,0.02387396991,432,0.03267772123,432,0.03560701013,
430,424.9212341,430,1.229952693,430,0.03346417099,430,0.03691494465,430,0.02897511609,
428,423.7563171,428,1.246924877,428,0.03343622386,428,0.02819783427,428,0.02489856258,
426,425.0696716,426,1.19840312,426,0.03455251083,426,0.02812596783,426,0.02154153958,
424,426.3666992,424,1.20868361,424,0.03424977511,424,0.02640188299,424,0.02307894081,
422,425.9107666,422,1.259574294,422,0.0333885327,422,0.01649474166,422,0.02172239311,
420,425.4384155,420,1.240956187,420,0.02726134472,420,0.02996696532,420,0.0273418054,
418,426.9797363,418,1.235289216,418,0.03292268142,418,0.03121056966,418,0.03326085582,
416,428.5111084,416,1.227859855,416,0.03732571006,416,0.02706663311,416,0.02370113879,
414,427.9032288,414,1.221551061,414,0.03063254431,414,0.02987606637,414,0.01706858911,
412,428.5036926,412,1.235218287,412,0.02618490905,412,0.03029803373,412,0.03596544638,
410,430.5653687,410,1.216719031,410,0.04418739676,410,0.02595473826,410,0.02238971181,
408,427.9934082,408,1.249609828,408,0.0265516229,408,0.029779654,408,0.02576151676,
406,427.966156,406,1.209756017,406,0.0187291503,406,0.02704396285,406,0.01145797875,
404,430.5455322,404,1.22009027,404,0.02876819111,404,0.02803649753,404,0.02099694498,
402,429.0002747,402,1.251261234,402,0.02166457288,402,0.02740132995,402,0.02508288063,
400,426.5186768,400,1.248089552,400,0.05192236975,400,0.02536121756,400,0.03760514781,

Hole,
Hole
Collection Time: 17/11/2023 12:43:04 PM
Operator Name  :
Scan Software Version: 4.10(464)
Parameter List :
Instrument                        Cary 5000
Instrument Version                1.12
Start (nm)                        2000.00
Stop (nm)                         400.00
X Mode                            Nanometers
Y Mode                            %T
Independent NIR                   On
Measurement Mode                  Auto
UV-Vis Data Interval (nm)         2.00
UV-Vis Ave. Time (sec)            0.100
UV-Vis SBW (nm)                   2.000
NIR Scan Rate (nm/min)            1800.000
NIR Data Interval (nm)            3.00
NIR Ave. Time (sec)               0.100
NIR Energy                        3.00
Slit Height                       Full
Beam Mode                         Double
Signal-to-noise Mode              Off
UV Source                         On
Vis Source                        On
Third Source                      Off
Source Changeover (nm)            350.00
Detector Changeover (nm)          800.00
Grating Changeover (nm)           800.00
Baseline Correction               Off
Cycle Mode                        Off
Comments
Method Log     :
Method Name    :
Date/Time stamp: 17/11/2023 11:47:17 AM
Method Modifications:
X Start nm Changed: 17/11/2023 11:57:29 AM, Old: 800.00, New:2000.00
X Stop nm Changed: 17/11/2023 11:57:29 AM, Old: 200.00, New: 400.00
Idpt Control Changed: 17/11/2023 11:57:29 AM, Old:0, New:1
UVVIS Interval nm Changed: 17/11/2023 11:57:29 AM, Old:     1.00, New:     2.00
NIR Scan Rate nm Changed: 17/11/2023 11:57:29 AM, Old:  600.000, New: 1800.000
NIR Interval nm Changed: 17/11/2023 11:57:29 AM, Old:     1.00, New:     3.00
Y mode Changed: 17/11/2023 11:59:29 AM, Old:Abs, New:%T
Storage Changed: 17/11/2023 12:41:24 PM, Old:1, New:0
End Method Modifications
<SBW (nm)> , 2.00
<Energy> , 3.00
<Slit height> , Full
<Current Wavelength> , 800.00
<SBW (nm)> , 2.00
<Energy> , 524.81
<Slit height> , Full
<Current Wavelength> , 400.00

MnPS3,
MnPS3
Collection Time: 17/11/2023 12:46:05 PM
Operator Name  :
Scan Software Version: 4.10(464)
Parameter List :
Instrument                        Cary 5000
Instrument Version                1.12
Start (nm)                        2000.00
Stop (nm)                         400.00
X Mode                            Nanometers
Y Mode                            %T
Independent NIR                   On
Measurement Mode                  Auto
UV-Vis Data Interval (nm)         2.00
UV-Vis Ave. Time (sec)            0.100
UV-Vis SBW (nm)                   2.000
NIR Scan Rate (nm/min)            1800.000
NIR Data Interval (nm)            3.00
NIR Ave. Time (sec)               0.100
NIR Energy                        3.00
Slit Height                       Full
Beam Mode                         Double
Signal-to-noise Mode              Off
UV Source                         On
Vis Source                        On
Third Source                      Off
Source Changeover (nm)            350.00
Detector Changeover (nm)          800.00
Grating Changeover (nm)           800.00
Baseline Correction               Off
Cycle Mode                        Off
Comments
Method Log     :
Method Name    :
Date/Time stamp: 17/11/2023 11:47:17 AM
Method Modifications:
X Start nm Changed: 17/11/2023 11:57:29 AM, Old: 800.00, New:2000.00
X Stop nm Changed: 17/11/2023 11:57:29 AM, Old: 200.00, New: 400.00
Idpt Control Changed: 17/11/2023 11:57:29 AM, Old:0, New:1
UVVIS Interval nm Changed: 17/11/2023 11:57:29 AM, Old:     1.00, New:     2.00
NIR Scan Rate nm Changed: 17/11/2023 11:57:29 AM, Old:  600.000, New: 1800.000
NIR Interval nm Changed: 17/11/2023 11:57:29 AM, Old:     1.00, New:     3.00
Y mode Changed: 17/11/2023 11:59:29 AM, Old:Abs, New:%T
Storage Changed: 17/11/2023 12:41:24 PM, Old:1, New:0
End Method Modifications
<SBW (nm)> , 2.00
<Energy> , 3.00
<Slit height> , Full
<Current Wavelength> , 800.00
<SBW (nm)> , 2.00
<Energy> , 1000.00
<Slit height> , Full
<Current Wavelength> , 400.00

CrPS4,
CrPS4
Collection Time: 17/11/2023 12:56:35 PM
Operator Name  :
Scan Software Version: 4.10(464)
Parameter List :
Instrument                        Cary 5000
Instrument Version                1.12
Start (nm)                        2000.00
Stop (nm)                         400.00
X Mode                            Nanometers
Y Mode                            %T
Independent NIR                   On
Measurement Mode                  Auto
UV-Vis Data Interval (nm)         2.00
UV-Vis Ave. Time (sec)            0.100
UV-Vis SBW (nm)                   2.000
NIR Scan Rate (nm/min)            1800.000
NIR Data Interval (nm)            3.00
NIR Ave. Time (sec)               0.100
NIR Energy                        3.00
Slit Height                       Full
Beam Mode                         Double
Signal-to-noise Mode              Off
UV Source                         On
Vis Source                        On
Third Source                      Off
Source Changeover (nm)            350.00
Detector Changeover (nm)          800.00
Grating Changeover (nm)           800.00
Baseline Correction               Off
Cycle Mode                        Off
Comments
Method Log     :
Method Name    :
Date/Time stamp: 17/11/2023 11:47:17 AM
Method Modifications:
X Start nm Changed: 17/11/2023 11:57:29 AM, Old: 800.00, New:2000.00
X Stop nm Changed: 17/11/2023 11:57:29 AM, Old: 200.00, New: 400.00
Idpt Control Changed: 17/11/2023 11:57:29 AM, Old:0, New:1
UVVIS Interval nm Changed: 17/11/2023 11:57:29 AM, Old:     1.00, New:     2.00
NIR Scan Rate nm Changed: 17/11/2023 11:57:29 AM, Old:  600.000, New: 1800.000
NIR Interval nm Changed: 17/11/2023 11:57:29 AM, Old:     1.00, New:     3.00
Y mode Changed: 17/11/2023 11:59:29 AM, Old:Abs, New:%T
Storage Changed: 17/11/2023 12:41:24 PM, Old:1, New:0
End Method Modifications
<SBW (nm)> , 2.00
<Energy> , 3.00
<Slit height> , Full
<Current Wavelength> , 800.00
<SBW (nm)> , 2.00
<Energy> , 1000.00
<Slit height> , Full
<Current Wavelength> , 399.00

NiPS3,
NiPS3
Collection Time: 17/11/2023 1:05:23 PM
Operator Name  :
Scan Software Version: 4.10(464)
Parameter List :
Instrument                        Cary 5000
Instrument Version                1.12
Start (nm)                        2000.00
Stop (nm)                         400.00
X Mode                            Nanometers
Y Mode                            %T
Independent NIR                   On
Measurement Mode                  Auto
UV-Vis Data Interval (nm)         2.00
UV-Vis Ave. Time (sec)            0.100
UV-Vis SBW (nm)                   2.000
NIR Scan Rate (nm/min)            1800.000
NIR Data Interval (nm)            3.00
NIR Ave. Time (sec)               0.100
NIR Energy                        3.00
Slit Height                       Full
Beam Mode                         Double
Signal-to-noise Mode              Off
UV Source                         On
Vis Source                        On
Third Source                      Off
Source Changeover (nm)            350.00
Detector Changeover (nm)          800.00
Grating Changeover (nm)           800.00
Baseline Correction               Off
Cycle Mode                        Off
Comments
Method Log     :
Method Name    :
Date/Time stamp: 17/11/2023 11:47:17 AM
Method Modifications:
X Start nm Changed: 17/11/2023 11:57:29 AM, Old: 800.00, New:2000.00
X Stop nm Changed: 17/11/2023 11:57:29 AM, Old: 200.00, New: 400.00
Idpt Control Changed: 17/11/2023 11:57:29 AM, Old:0, New:1
UVVIS Interval nm Changed: 17/11/2023 11:57:29 AM, Old:     1.00, New:     2.00
NIR Scan Rate nm Changed: 17/11/2023 11:57:29 AM, Old:  600.000, New: 1800.000
NIR Interval nm Changed: 17/11/2023 11:57:29 AM, Old:     1.00, New:     3.00
Y mode Changed: 17/11/2023 11:59:29 AM, Old:Abs, New:%T
Storage Changed: 17/11/2023 12:41:24 PM, Old:1, New:0
End Method Modifications
<SBW (nm)> , 2.00
<Energy> , 3.00
<Slit height> , Full
<Current Wavelength> , 800.00
<SBW (nm)> , 2.00
<Energy> , 954.99
<Slit height> , Full
<Current Wavelength> , 400.00

FePS3,
FePS3
Collection Time: 17/11/2023 1:08:04 PM
Operator Name  :
Scan Software Version: 4.10(464)
Parameter List :
Instrument                        Cary 5000
Instrument Version                1.12
Start (nm)                        2000.00
Stop (nm)                         400.00
X Mode                            Nanometers
Y Mode                            %T
Independent NIR                   On
Measurement Mode                  Auto
UV-Vis Data Interval (nm)         2.00
UV-Vis Ave. Time (sec)            0.100
UV-Vis SBW (nm)                   2.000
NIR Scan Rate (nm/min)            1800.000
NIR Data Interval (nm)            3.00
NIR Ave. Time (sec)               0.100
NIR Energy                        3.00
Slit Height                       Full
Beam Mode                         Double
Signal-to-noise Mode              Off
UV Source                         On
Vis Source                        On
Third Source                      Off
Source Changeover (nm)            350.00
Detector Changeover (nm)          800.00
Grating Changeover (nm)           800.00
Baseline Correction               Off
Cycle Mode                        Off
Comments
Method Log     :
Method Name    :
Date/Time stamp: 17/11/2023 11:47:17 AM
Method Modifications:
X Start nm Changed: 17/11/2023 11:57:29 AM, Old: 800.00, New:2000.00
X Stop nm Changed: 17/11/2023 11:57:29 AM, Old: 200.00, New: 400.00
Idpt Control Changed: 17/11/2023 11:57:29 AM, Old:0, New:1
UVVIS Interval nm Changed: 17/11/2023 11:57:29 AM, Old:     1.00, New:     2.00
NIR Scan Rate nm Changed: 17/11/2023 11:57:29 AM, Old:  600.000, New: 1800.000
NIR Interval nm Changed: 17/11/2023 11:57:29 AM, Old:     1.00, New:     3.00
Y mode Changed: 17/11/2023 11:59:29 AM, Old:Abs, New:%T
Storage Changed: 17/11/2023 12:41:24 PM, Old:1, New:0
End Method Modifications
<SBW (nm)> , 2.00
<Energy> , 3.00
<Slit height> , Full
<Current Wavelength> , 800.00
<SBW (nm)> , 2.00
<Energy> , 954.99
<Slit height> , Full
<Current Wavelength> , 400.00

