MnPS3,,Hole,,CrPS4,,NiPS3,,FePS3,,
Wavelength (nm),%T,Wavelength (nm),%T,Wavelength (nm),%T,Wavelength (nm),%T,Wavelength (nm),%T,
2000,13.99180698,2000,106.1286697,2000,20.52676773,2000,32.01757431,2000,14.82626343,
1997,13.94917202,1997,106.5806656,1997,20.61964798,1997,32.23016739,1997,14.9331789,
1994,13.79504395,1994,108.1126328,1994,20.59067726,1994,32.40171432,1994,15.13591862,
1991,13.89467239,1991,108.0894852,1991,20.47484398,1991,32.55851746,1991,15.1134882,
1988,13.82903767,1988,108.8103409,1988,20.47047043,1988,32.92605591,1988,15.43100452,
1985,13.82128716,1985,110.775032,1985,20.33800316,1985,33.01338577,1985,15.52220249,
1982,14.07055855,1982,110.7126617,1982,20.90146446,1982,33.09526825,1982,15.70289612,
1979,14.15715981,1979,111.5764465,1979,21.26983833,1979,33.79289246,1979,15.82517338,
1976,14.36745644,1976,113.5544205,1976,21.11930466,1976,34.084095,1976,16.06975365,
1973,14.66295147,1973,113.6517487,1973,21.61302948,1973,34.22954559,1973,16.19777298,
1970,14.87000561,1970,114.6301727,1970,21.42960358,1970,34.77993393,1970,16.582407,
1967,15.11438179,1967,116.6631317,1967,21.15169525,1967,35.12069702,1967,16.76788712,
1964,15.67039776,1964,116.3381119,1964,21.81985092,1964,35.34915924,1964,16.88902664,
1961,15.72766781,1961,117.984642,1961,21.76828766,1961,35.94997406,1961,17.26144409,
1958,15.94419003,1958,119.8253632,1958,22.1841774,1958,35.90238571,1958,17.38758469,
1955,16.19090652,1955,119.6649094,1955,22.68471336,1955,36.09582901,1955,17.60225677,
1952,15.9724369,1952,121.6761017,1952,22.53250504,1952,36.8552475,1952,17.89467812,
1949,16.21931458,1949,123.5359192,1949,22.35599518,1949,36.88963318,1949,17.93170357,
1946,16.29501152,1946,122.8320847,1946,22.58236313,1946,37.48009491,1946,18.06989098,
1943,16.02419662,1943,125.2327347,1943,22.3473053,1943,38.07046509,1943,18.50698853,
1940,16.30817795,1940,126.3781281,1940,22.70005417,1940,37.9421196,1940,18.70936584,
1937,16.22622681,1937,126.282753,1937,23.29135895,1937,38.44999695,1937,18.87265587,
1934,16.15003395,1934,128.6164856,1934,23.20335579,1934,38.86874008,1934,19.13576126,
1931,16.27008629,1931,129.3251801,1931,23.63759804,1931,38.11516571,1931,19.17761421,
1928,16.08622169,1928,127.9674149,1928,23.45118713,1928,38.35192871,1928,19.21747208,
1925,16.29352188,1925,130.9230042,1925,23.12056351,1925,38.59783173,1925,19.5408287,
1922,16.35232353,1922,129.4924622,1922,23.32159042,1922,37.66264725,1922,19.09679794,
1919,16.4284668,1919,129.3948212,1919,23.27051544,1919,37.88908386,1919,18.93321991,
1916,16.75190353,1916,131.6148834,1916,23.53872681,1916,38.05767441,1916,18.97266388,
1913,16.95041275,1913,128.4712524,1913,24.21985626,1913,37.56374741,1913,18.35260963,
1910,16.75520897,1910,128.5401306,1910,24.0868187,1910,37.65636063,1910,18.0326519,
1907,16.7449913,1907,127.6616211,1907,23.95085335,1907,37.2615242,1907,17.83851433,
1904,16.68037415,1904,125.1929626,1904,23.85144424,1904,36.96733475,1904,17.45928192,
1901,16.75832939,1901,126.8297653,1901,23.70152473,1901,37.21207809,1901,17.31440353,
1898,16.75893784,1898,124.6798553,1898,23.91453552,1898,36.97975159,1898,17.20694351,
1895,16.49720192,1895,123.0259323,1895,23.96283531,1895,37.32741165,1895,17.11684608,
1892,16.28751755,1892,124.4005814,1892,23.4470787,1892,36.61701584,1892,16.96938896,
1889,16.24702835,1889,123.9475479,1889,23.1192894,1889,36.51295853,1889,17.1838913,
1886,16.3673954,1886,128.12854,1886,22.78042221,1886,37.20666885,1886,18.11271858,
1883,16.54026413,1883,129.1392975,1883,22.90477371,1883,37.21155167,1883,17.94150734,
1880,16.2837944,1880,126.9805298,1880,23.40953445,1880,38.06111526,1880,17.97327614,
1877,16.01204491,1877,127.2511368,1877,23.08114243,1877,38.17027283,1877,18.24378395,
1874,15.83517647,1874,125.7137146,1874,23.60082054,1874,37.69399643,1874,17.80630875,
1871,15.99961185,1871,127.8799667,1871,24.24970055,1871,39.07482147,1871,18.25105667,
1868,16.05820465,1868,128.2057953,1868,24.90486336,1868,39.94947815,1868,18.68534088,
1865,15.9257412,1865,125.6970291,1865,24.81796646,1865,39.30128479,1865,18.13680458,
1862,15.82181168,1862,125.8643265,1862,24.09362221,1862,39.59323502,1862,18.33304214,
1859,16.16268349,1859,129.589386,1859,24.4469223,1859,39.61249161,1859,19.18541908,
1856,16.64785385,1856,130.4395142,1856,24.74175453,1856,39.83945084,1856,19.23817635,
1853,17.03933907,1853,133.1851349,1853,24.86930275,1853,40.33696747,1853,19.60228157,
1850,17.48288345,1850,132.2125244,1850,25.9054985,1850,41.15625,1850,20.02734756,
1847,17.66416931,1847,133.3553162,1847,25.95024681,1847,40.73033142,1847,19.73057556,
1844,17.74879646,1844,132.9959259,1844,26.20491982,1844,41.37879181,1844,19.56575012,
1841,17.72251129,1841,133.3033752,1841,26.20393944,1841,41.54662704,1841,19.96934891,
1838,17.6474781,1838,133.4595642,1838,26.28696251,1838,41.3475647,1838,19.68392754,
1835,17.7168293,1835,134.8244019,1835,26.84857178,1835,41.8869133,1835,19.63266945,
1832,17.596138,1832,135.1816864,1832,27.46221352,1832,42.42340088,1832,19.96329308,
1829,17.29846001,1829,135.2680664,1829,27.53972435,1829,41.55874634,1829,19.55684471,
1826,17.22214127,1826,135.3423767,1826,27.73070908,1826,42.1608429,1826,19.57967949,
1823,17.26307106,1823,138.3336182,1823,27.84252548,1823,42.30997086,1823,20.07976532,
1820,17.33099937,1820,137.7025757,1820,27.38249588,1820,41.90964508,1820,19.45992851,
1817,17.33776093,1817,138.8363342,1817,27.80601883,1817,42.57320404,1817,19.50252724,
1814,17.55710983,1814,140.6255798,1814,27.96127129,1814,42.64271927,1814,20.07312775,
1811,17.69286728,1811,139.6285248,1811,28.30704689,1811,42.53095627,1811,19.3123951,
1808,17.84660149,1808,141.7253723,1808,28.89154816,1808,43.00039291,1808,19.51926231,
1805,18.25086403,1805,142.2015228,1805,29.01853371,1805,43.03342438,1805,19.80423546,
1802,18.28634071,1802,143.2821808,1802,29.14738083,1802,43.10089111,1802,19.36522484,
1799,18.350811,1799,144.3444366,1799,28.80581093,1799,43.95896912,1799,19.73560333,
1796,18.66785049,1796,144.709198,1796,28.94525909,1796,43.94988251,1796,19.78552437,
1793,18.7827282,1793,146.0677185,1793,29.0284481,1793,44.44866562,1793,19.51212692,
1790,19.06685638,1790,146.3934784,1790,29.32172966,1790,45.18787766,1790,20.17977715,
1787,18.96461868,1787,147.7761383,1787,29.78496552,1787,44.9669075,1787,20.32834244,
1784,18.91935349,1784,148.4491577,1784,29.81569481,1784,46.19879913,1784,20.26670265,
1781,18.80898476,1781,149.1391296,1781,29.80689049,1781,46.56544876,1781,20.88991928,
1778,18.9389267,1778,150.1831818,1778,29.50843048,1778,46.66060638,1778,20.72200394,
1775,18.88915253,1775,150.558609,1775,29.59899902,1775,47.76669312,1775,21.13158798,
1772,18.88418388,1772,151.6815033,1772,29.84861183,1772,47.41080856,1772,21.89524078,
1769,19.10848618,1769,152.3583221,1769,30.13642693,1769,47.96271896,1769,21.66271973,
1766,19.06281281,1766,153.3668823,1766,30.91462898,1766,48.58020782,1766,22.36423111,
1763,19.15945625,1763,154.125473,1763,31.20932961,1763,47.93891907,1763,22.59781456,
1760,19.04661179,1760,154.7591705,1760,31.35097885,1760,48.43225479,1760,22.25252914,
1757,19.1391983,1757,155.6508789,1757,31.13785362,1757,48.39217377,1757,22.92355537,
1754,19.36301804,1754,156.070694,1754,31.11501694,1754,48.04414368,1754,22.56966209,
1751,19.55826187,1751,157.0973358,1751,31.30278206,1751,48.85924911,1751,22.44935989,
1748,19.85028267,1748,157.9003448,1748,31.29706383,1748,48.75252533,1748,22.73005676,
1745,19.97913551,1745,158.8632355,1745,31.70374298,1745,48.94052505,1745,22.1564846,
1742,20.17052078,1742,159.6283875,1742,31.67300606,1742,49.43343735,1742,22.55160904,
1739,20.19607735,1739,160.1170349,1739,31.63041496,1739,49.0276947,1739,22.73311043,
1736,20.2903347,1736,160.837738,1736,31.16610909,1736,49.66223145,1736,22.30996513,
1733,20.17546654,1733,161.6473846,1733,31.04883194,1733,49.57409668,1733,22.78181839,
1730,20.06536484,1730,162.1990662,1730,31.28190613,1730,49.53897095,1730,22.59531021,
1727,20.03308678,1727,163.3684692,1727,31.51061249,1727,50.02705002,1727,22.71332932,
1724,20.02560234,1724,163.9262085,1724,32.16982651,1724,49.8330307,1724,23.11105728,
1721,19.8521843,1721,165.0621796,1721,32.50136185,1721,50.26945496,1721,22.79209328,
1718,19.73051643,1718,165.7372894,1718,32.59724045,1718,50.37826157,1718,23.08485031,
1715,19.63161087,1715,166.6734619,1715,32.45678711,1715,50.29703903,1715,22.9261837,
1712,19.94727325,1712,167.5163879,1712,32.3735466,1712,51.05606842,1712,22.79847717,
1709,20.20870972,1709,168.1072083,1709,32.33272552,1709,51.01230621,1709,23.23404121,
1706,20.43389511,1706,169.4024353,1706,32.43386459,1706,51.78759003,1706,23.01995468,
1703,20.7369976,1703,169.8115997,1703,32.77746582,1703,52.24728394,1703,23.41297913,
1700,21.04958344,1700,171.0887756,1700,32.92018127,1700,52.22012329,1700,23.54673195,
1697,21.16820717,1697,171.24263,1697,32.69451523,1697,52.98114395,1697,23.6687355,
1694,21.38879967,1694,172.6598816,1694,32.42834091,1694,52.93785477,1694,24.41095352,
1691,21.48014641,1691,172.7077484,1691,32.15522385,1691,53.60324478,1691,24.02564621,
1688,21.45704269,1688,174.3321228,1688,32.35269165,1688,53.75336456,1688,24.75537491,
1685,21.45577621,1685,174.4096375,1685,32.634655,1685,53.67987823,1685,24.90410042,
1682,21.28572083,1682,175.723999,1682,33.22562027,1682,54.08744049,1682,25.15310669,
1679,21.31023026,1679,176.244812,1679,33.61441803,1679,53.7265358,1679,25.65155983,
1676,21.24979782,1676,177.1735992,1676,33.73601532,1676,53.8375206,1676,25.43668365,
1673,21.10162354,1673,177.8703156,1673,33.74046707,1673,53.67868042,1673,25.82517242,
1670,21.08093834,1670,178.8801727,1670,33.30554581,1670,53.4580307,1670,25.50710678,
1667,21.12338066,1667,179.9807587,1667,33.38566589,1667,53.6805687,1667,25.32739258,
1664,21.41018486,1664,180.4085541,1664,33.21419907,1664,53.53119278,1664,25.36455345,
1661,21.95666504,1661,181.8079987,1661,33.75483322,1661,53.88235474,1661,25.13190842,
1658,22.18639565,1658,182.2080231,1658,33.66949844,1658,53.73217392,1658,25.17317009,
1655,22.3900528,1655,183.7535553,1655,33.8507843,1655,54.00504303,1655,25.1167717,
1652,22.53182793,1652,183.7353973,1652,33.48506546,1652,53.92314148,1652,25.0050106,
1649,22.64748001,1649,185.4006958,1649,33.57961273,1649,54.27532196,1649,25.10630798,
1646,22.87435532,1646,185.4297485,1646,33.58865356,1646,54.34833908,1646,25.0921669,
1643,22.770504,1643,187.3716583,1643,34.19309998,1643,54.90574646,1643,25.33165741,
1640,22.70921707,1640,187.2265472,1640,34.55647659,1640,55.14728928,1640,25.26112175,
1637,22.41848183,1637,189.1946106,1637,35.30639267,1637,55.7297821,1637,25.48273468,
1634,22.24357033,1634,188.9398346,1634,35.09596252,1634,55.9981041,1634,25.61455345,
1631,22.15546799,1631,190.8167725,1631,35.19136047,1631,56.74856186,1631,25.89612579,
1628,22.27601814,1628,190.7347717,1628,34.43917465,1628,57.21202087,1628,26.02854729,
1625,22.52602005,1625,192.7046814,1625,34.8696785,1625,57.90548325,1625,26.50454903,
1622,22.81050873,1622,192.5652008,1622,34.55789948,1622,58.06166077,1622,26.8278904,
1619,23.17767143,1619,194.566925,1619,35.27449417,1619,58.62847519,1619,27.42251968,
1616,23.74508286,1616,194.6185913,1616,35.3817749,1616,58.63711166,1616,27.79417038,
1613,24.07358932,1613,196.2985687,1613,35.90548706,1613,58.83013535,1613,28.14523315,
1610,24.13393402,1610,196.3321533,1610,35.82188034,1610,58.60933685,1610,28.13159752,
1607,24.0976963,1607,197.9460297,1607,35.77280045,1607,58.48097992,1607,28.42274094,
1604,24.05669594,1604,197.9059753,1604,35.87519073,1604,58.43871689,1604,28.30743408,
1601,23.9684124,1601,199.424118,1601,36.27367783,1601,58.48513794,1601,28.37038612,
1598,23.93972397,1598,200.1315765,1598,36.60371399,1598,58.28866959,1598,28.24005699,
1595,23.67367363,1595,201.0498962,1595,37.11676788,1595,58.58137512,1595,28.02899742,
1592,23.61822128,1592,202.0119629,1592,36.94831848,1592,58.3302002,1592,27.93546867,
1589,23.55059433,1589,202.7799072,1589,36.77921677,1589,58.8023262,1589,27.6136837,
1586,23.82351685,1586,203.8317261,1586,36.30762863,1586,58.50504684,1586,27.63023376,
1583,24.21735954,1583,204.2895508,1583,36.4021492,1583,58.89306641,1583,27.41892624,
1580,24.54854393,1580,205.5902252,1580,36.67582703,1580,58.61384201,1580,27.79539299,
1577,24.91996956,1577,205.7128601,1577,37.14567184,1577,59.20819092,1577,27.58436584,
1574,25.10824203,1574,207.3100128,1574,37.80459213,1574,59.0810585,1574,27.70617867,
1571,25.39321136,1571,207.2892151,1571,37.80705643,1571,59.57202148,1571,27.50310326,
1568,25.2581768,1568,208.8627319,1568,37.81996536,1568,59.38763046,1568,27.68299484,
1565,25.20394325,1565,208.5965576,1565,37.36940384,1565,60.0439949,1565,27.60895729,
1562,24.96975517,1562,209.9519501,1562,37.3079567,1562,60.15570831,1562,27.85167694,
1559,24.88811684,1559,210.2703857,1559,37.35350037,1559,60.80059814,1559,27.87846375,
1556,24.93878174,1556,211.5686188,1556,37.51057816,1556,60.89265823,1556,28.13088036,
1553,24.86634445,1553,212.0137177,1553,37.89863586,1553,61.27141571,1553,28.41952515,
1550,24.8132267,1550,212.8252716,1550,37.8595047,1550,61.20638275,1550,28.52141571,
1547,24.76120758,1547,213.7804565,1547,37.91160965,1547,61.37509155,1547,28.80167389,
1544,25.04206085,1544,214.1821594,1544,37.52183151,1544,60.86798477,1544,28.89787483,
1541,25.28582573,1541,215.0955658,1541,37.60080719,1541,60.96329498,1541,29.15202904,
1538,25.65274239,1538,215.4350281,1538,37.78000259,1538,60.2506218,1538,28.88550186,
1535,25.82030869,1535,216.4039612,1535,38.03170013,1535,60.09430313,1535,28.95495987,
1532,25.97204971,1532,217.0239868,1532,38.52761459,1532,59.30624008,1532,28.60155487,
1529,25.96782494,1529,217.7895966,1529,38.32887268,1529,59.19976807,1529,28.43234634,
1526,25.88258171,1526,218.4515686,1526,38.12342834,1526,58.61809921,1526,27.77760315,
1523,25.62385178,1523,219.1090851,1523,37.32536697,1523,58.75013351,1523,27.41975784,
1520,25.44253731,1520,219.6925659,1520,37.0692749,1520,58.19401169,1520,26.83232117,
1517,25.45747375,1517,220.4546509,1517,37.08731842,1517,58.37975693,1517,26.69978523,
1514,25.61049461,1514,221.077652,1514,37.1965332,1514,58.04330826,1514,26.40690422,
1511,25.65700722,1511,222.0677185,1511,37.64802933,1511,58.27401352,1511,26.29104614,
1508,25.92218018,1508,222.6447296,1508,37.59566116,1508,58.02177048,1508,26.0857048,
1505,26.17335892,1505,223.1662445,1505,37.29574203,1505,58.02735519,1505,25.99785614,
1502,26.34969711,1502,224.0665436,1502,36.727314,1502,57.3829422,1502,25.94335365,
1499,26.61569214,1499,224.3681946,1499,36.31821442,1499,57.34045029,1499,25.96707916,
1496,26.78744888,1496,225.0233154,1496,36.10072327,1496,56.75024414,1496,26.02890396,
1493,26.92105484,1493,225.8329468,1493,35.8764267,1493,56.41902542,1493,25.72943878,
1490,26.95689774,1490,226.3626099,1490,35.91012192,1490,55.46389389,1490,25.76530647,
1487,26.64736748,1487,227.231842,1487,35.64925385,1487,54.61897278,1487,25.43380547,
1484,26.41573524,1484,227.390213,1484,35.30709457,1484,53.66857147,1484,25.12524033,
1481,26.33588028,1481,228.4436951,1481,34.47327423,1481,52.70430374,1481,24.55766678,
1478,26.3109951,1478,228.5267639,1478,34.03137207,1478,51.68212509,1478,24.10150146,
1475,26.38991547,1475,228.883194,1475,33.61944962,1475,50.58374405,1475,23.37666893,
1472,26.51476288,1472,229.790451,1472,33.2653923,1472,49.52293777,1472,22.83097267,
1469,26.72143936,1469,229.701355,1469,33.07152176,1469,48.22842026,1469,22.05913162,
1466,27.06614685,1466,230.7172241,1466,32.46099472,1466,47.33436966,1466,21.42745781,
1463,27.21814156,1463,231.2199097,1463,31.63194656,1463,46.07730865,1463,20.71247482,
1460,27.14310646,1460,230.8794556,1460,30.44599342,1460,44.93788147,1460,19.96713638,
1457,27.16075134,1457,232.3292084,1457,29.55433655,1457,43.90293503,1457,19.39436722,
1454,27.15816498,1454,232.4127655,1454,29.06500626,1454,42.7481041,1454,18.85379982,
1451,26.97264862,1451,233.1320496,1451,28.25359917,1451,41.61936569,1451,18.38506699,
1448,26.722435,1448,234.2224121,1448,27.82734299,1448,40.4300499,1448,17.80628777,
1445,26.78132439,1445,234.0202026,1445,27.16121674,1445,39.14298248,1445,17.3420105,
1442,26.79608536,1442,234.5991669,1442,26.1523037,1442,37.78259277,1442,16.81995583,
1439,26.86084175,1439,235.1430969,1439,25.03587341,1439,36.28238297,1439,16.44109726,
1436,27.16466713,1436,234.7423553,1436,23.88252831,1436,34.66962814,1436,15.92175674,
1433,27.45475388,1433,235.8742218,1433,22.81022644,1433,33.12612534,1433,15.3323698,
1430,27.68260574,1430,236.6725159,1430,21.96917725,1430,31.57084274,1430,14.73597908,
1427,27.86824799,1427,236.5334473,1427,21.37374306,1427,29.98805618,1427,14.15683365,
1424,27.6391449,1424,237.3079987,1424,20.47740746,1424,28.29453278,1424,13.53288269,
1421,27.50624084,1421,238.0383301,1421,19.52899551,1421,26.71072769,1421,12.87257957,
1418,27.49267578,1418,239.187973,1418,18.49374962,1418,25.10163116,1418,12.32320404,
1415,27.12668419,1415,239.5019836,1415,17.39711571,1415,23.60612869,1415,11.68586349,
1412,27.16188431,1412,240.2658386,1412,16.59690666,1412,22.16521263,1412,11.0449791,
1409,27.47511482,1409,240.4540253,1409,15.704422,1409,20.6997757,1409,10.48310947,
1406,27.56459427,1406,241.9638824,1406,14.99710941,1406,19.31863785,1406,10.01851845,
1403,27.67882729,1403,241.0489349,1403,14.22528744,1403,18.01482201,1403,9.412198067,
1400,27.63955879,1400,240.3388672,1400,13.41586399,1400,16.52006912,1400,8.96056366,
1397,27.52490044,1397,241.667038,1397,12.77852345,1397,15.18216419,1397,8.512181282,
1394,27.93092155,1394,246.0567169,1394,12.34831047,1394,14.20448589,1394,8.209485054,
1391,27.75842857,1391,244.7761993,1391,11.7641573,1391,13.0890131,1391,7.839743137,
1388,27.17444229,1388,242.5827332,1388,10.99057007,1388,11.86779976,1388,7.408988476,
1385,26.99687195,1385,242.0861664,1385,10.49283981,1385,10.80003929,1385,7.068555832,
1382,27.29246902,1382,246.0000916,1382,10.11938858,1382,9.783370018,1382,6.706611633,
1379,27.54860878,1379,248.0189056,1379,9.867834091,1379,8.998916626,1379,6.52581358,
1376,27.54660225,1376,247.0301666,1376,9.434727669,1376,8.242521286,1376,6.170410156,
1373,27.45047188,1373,244.3373718,1373,9.0968256,1373,7.404784679,1373,5.741353512,
1370,27.42299652,1370,244.2619324,1370,8.943256378,1370,6.69880867,1370,5.493221283,
1367,27.81404877,1367,246.8981476,1367,8.840237617,1367,6.202426434,1367,5.201936722,
1364,27.7846508,1364,245.3938904,1364,8.597887039,1364,5.769233704,1364,4.983131886,
1361,27.1530304,1361,241.6706543,1361,8.262551308,1361,5.29066515,1361,4.603643417,
1358,26.70432854,1358,239.9743042,1358,8.009378433,1358,4.91736412,1358,4.463387489,
1355,26.29581451,1355,238.6841278,1355,7.894458771,1355,4.601530552,1355,4.210497856,
1352,26.13528061,1352,237.8886414,1352,7.92252636,1352,4.286278248,1352,4.033982277,
1349,26.38274193,1349,240.3037109,1349,7.978645802,1349,4.0054245,1349,3.859819412,
1346,26.74683571,1346,241.8012848,1346,7.960122108,1346,3.875183582,1346,3.761447191,
1343,27.21733475,1343,244.0205994,1343,8.021168709,1343,3.71673584,1343,3.656796694,
1340,27.49677658,1340,246.3992615,1340,7.99246645,1340,3.608618975,1340,3.627244473,
1337,27.63703156,1337,247.7451782,1337,7.993026733,1337,3.55111146,1337,3.479868174,
1334,27.6594677,1334,248.8329468,1334,7.952317715,1334,3.431689262,1334,3.46348238,
1331,27.56211472,1331,249.7923889,1331,7.889196396,1331,3.315170527,1331,3.368896723,
1328,27.44061279,1328,250.8746338,1328,7.942726612,1328,3.24647975,1328,3.317608595,
1325,27.44053268,1325,252.1610718,1325,8.015516281,1325,3.165806055,1325,3.21284914,
1322,27.56329155,1322,253.280014,1322,8.013975143,1322,3.152006388,1322,3.159447432,
1319,27.8741684,1319,254.6812134,1319,7.996107578,1319,3.153384209,1319,3.148829937,
1316,28.11755753,1316,256.369812,1316,8.068099976,1316,3.100231171,1316,3.045327425,
1313,28.23732567,1313,257.4918213,1313,8.022518158,1313,3.012973785,1313,3.070643425,
1310,28.30171013,1310,256.7307434,1310,7.976320267,1310,3.016852617,1310,3.024174452,
1307,28.10083961,1307,254.9307556,1307,7.859166145,1307,2.936453104,1307,2.901884556,
1304,27.86001778,1304,253.5260162,1304,7.915964603,1304,2.932049036,1304,2.890733957,
1301,27.71715736,1301,253.4151001,1301,7.846850395,1301,2.860946655,1301,2.869861364,
1298,27.63109207,1298,253.3114471,1298,7.852899075,1298,2.843414068,1298,2.808530331,
1295,27.71357536,1295,253.3267517,1295,7.837596416,1295,2.837732792,1295,2.759941101,
1292,27.79393768,1292,253.5483551,1292,7.806016445,1292,2.77229166,1292,2.761716843,
1289,28.0912838,1289,254.2606354,1289,7.882760525,1289,2.744978189,1289,2.745158434,
1286,28.23527145,1286,254.8471222,1286,7.918544292,1286,2.720057487,1286,2.720351696,
1283,28.26864433,1283,255.2083282,1283,7.92201519,1283,2.726612568,1283,2.684408426,
1280,28.28108025,1280,255.5444489,1280,7.998894215,1280,2.698939562,1280,2.669022799,
1277,28.18344307,1277,255.7319946,1277,8.004515648,1277,2.755027056,1277,2.656142712,
1274,28.04360962,1274,256.3442383,1274,8.026370049,1274,2.765598536,1274,2.637724876,
1271,27.95189667,1271,256.7990417,1271,8.015877724,1271,2.685198307,1271,2.694127083,
1268,27.97522926,1268,257.2888184,1268,8.007395744,1268,2.616019726,1268,2.618104935,
1265,28.11222076,1265,257.3220825,1265,8.030549049,1265,2.657615185,1265,2.618477106,
1262,28.29156303,1262,257.4645386,1262,7.936434269,1262,2.647095442,1262,2.593948603,
1259,28.35728264,1259,257.8204041,1259,7.897387981,1259,2.640995026,1259,2.534833431,
1256,28.24225426,1256,258.1541443,1256,7.776018143,1256,2.643036604,1256,2.492894888,
1253,28.23949814,1253,258.7690735,1253,7.757638454,1253,2.631918907,1253,2.566697359,
1250,28.02100754,1250,258.9208069,1250,7.670012951,1250,2.586268187,1250,2.532712698,
1247,27.9886837,1247,259.2400208,1247,7.634139061,1247,2.627182007,1247,2.644476414,
1244,28.10461426,1244,259.3650513,1244,7.656816959,1244,2.58975935,1244,2.503618956,
1241,28.09692574,1241,259.7697754,1241,7.49603796,1241,2.576347589,1241,2.539150715,
1238,28.25287056,1238,260.3928528,1238,7.447189808,1238,2.620492458,1238,2.473650694,
1235,28.34908104,1235,260.6358948,1235,7.43785429,1235,2.590708017,1235,2.509778738,
1232,28.27939415,1232,260.9845581,1232,7.369643211,1232,2.614251614,1232,2.474739313,
1229,28.22142029,1229,261.09198,1229,7.417233944,1229,2.548620701,1229,2.457411289,
1226,28.14266396,1226,261.432251,1226,7.343618393,1226,2.540438175,1226,2.590381861,
1223,28.13006401,1223,261.5675964,1223,7.365618706,1223,2.59586978,1223,2.504386663,
1220,28.18227959,1220,261.9166565,1220,7.309161663,1220,2.512725353,1220,2.504934072,
1217,28.34066391,1217,262.5533447,1217,7.201534271,1217,2.574862719,1217,2.456077576,
1214,28.39891052,1214,262.8204041,1214,7.161054611,1214,2.55517745,1214,2.473617077,
1211,28.44105148,1211,263.3141479,1211,7.138102531,1211,2.566003799,1211,2.446069717,
1208,28.33274078,1208,263.5952759,1208,7.035542488,1208,2.526604652,1208,2.461586952,
1205,28.30068207,1205,263.7877808,1205,6.994394779,1205,2.50517416,1205,2.501683712,
1202,28.3074646,1202,263.807373,1202,6.890405655,1202,2.556515217,1202,2.450596333,
1199,28.27946472,1199,264.016571,1199,6.83690691,1199,2.506521225,1199,2.462268353,
1196,27.5657711,1196,256.8808594,1196,6.520239353,1196,2.462290287,1196,2.382819653,
1193,27.59563065,1193,257.0075684,1193,6.537110329,1193,2.472456932,1193,2.348282814,
1190,27.58914757,1190,256.9285278,1190,6.517142773,1190,2.430871487,1190,2.32672739,
1187,27.58415985,1187,256.9343872,1187,6.483921528,1187,2.44272995,1187,2.366665363,
1184,27.54698944,1184,257.1590576,1184,6.459100723,1184,2.442092896,1184,2.304579973,
1181,27.59837532,1181,257.3396301,1181,6.412631989,1181,2.412875414,1181,2.275925875,
1178,27.51581001,1178,257.4237366,1178,6.369446278,1178,2.486098528,1178,2.316975117,
1175,27.5745697,1175,257.6654968,1175,6.332369804,1175,2.428382158,1175,2.300143957,
1172,27.59612274,1172,257.6655884,1172,6.352608681,1172,2.407085657,1172,2.376968145,
1169,27.56975555,1169,257.8825073,1169,6.364715099,1169,2.39028573,1169,2.313404799,
1166,27.55691719,1166,257.9199524,1166,6.345947742,1166,2.350862026,1166,2.337984085,
1163,27.56876945,1163,258.1418152,1163,6.360653877,1163,2.336112261,1163,2.301925898,
1160,27.49813843,1160,258.2313232,1160,6.396388054,1160,2.411761284,1160,2.269000769,
1157,27.55726242,1157,258.6613464,1157,6.383702278,1157,2.401070595,1157,2.293430805,
1154,27.54044914,1154,258.6443176,1154,6.406847954,1154,2.355967283,1154,2.323468685,
1151,27.38393211,1151,258.3681946,1151,6.383086205,1151,2.372689247,1151,2.339323997,
1148,27.44453049,1148,258.6572266,1148,6.402122021,1148,2.401725769,1148,2.319578648,
1145,27.4117775,1145,258.7449646,1145,6.509759903,1145,2.350266933,1145,2.232188702,
1142,27.4440136,1142,258.4443359,1142,6.525100708,1142,2.347705603,1142,2.227340937,
1139,27.48164749,1139,258.6501465,1139,6.535763264,1139,2.288120747,1139,2.223272562,
1136,27.43563271,1136,258.9729919,1136,6.466559887,1136,2.31158185,1136,2.224281549,
1133,27.40710449,1133,259.2460327,1133,6.453206539,1133,2.309258938,1133,2.237171173,
1130,27.3332634,1130,259.0233459,1130,6.494443893,1130,2.34435153,1130,2.224364758,
1127,27.22315788,1127,258.4835205,1127,6.526771069,1127,2.304377317,1127,2.234127522,
1124,27.28682137,1124,258.3182373,1124,6.50756216,1124,2.315982342,1124,2.183550596,
1121,27.31020355,1121,258.7814331,1121,6.397353649,1121,2.243023396,1121,2.224670649,
1118,27.30420303,1118,258.6515198,1118,6.412736416,1118,2.225261688,1118,2.185203791,
1115,27.28346252,1115,258.7601318,1115,6.344255924,1115,2.333878756,1115,2.166576862,
1112,27.25814629,1112,258.6928406,1112,6.488691807,1112,2.28670311,1112,2.181018591,
1109,27.22655296,1109,258.8172913,1109,6.384026051,1109,2.279374123,1109,2.12624836,
1106,27.35915565,1106,258.8867188,1106,6.257993698,1106,2.264036894,1106,2.215882301,
1103,27.40132904,1103,259.1304932,1103,6.293413639,1103,2.215167046,1103,2.130802631,
1100,27.43087769,1100,259.349762,1100,6.311706543,1100,2.277656317,1100,2.134075642,
1097,27.48041725,1097,259.521759,1097,6.248926163,1097,2.19291687,1097,2.143801928,
1094,27.4109745,1094,259.815918,1094,6.225164413,1094,2.210855007,1094,2.12075901,
1091,27.33195496,1091,260.1182556,1091,6.16080761,1091,2.205500364,1091,2.210731745,
1088,27.16883087,1088,260.1443787,1088,6.153363228,1088,2.190227747,1088,2.144594908,
1085,27.3205452,1085,259.9566345,1085,6.225046635,1085,2.161101103,1085,2.170645714,
1082,27.36290932,1082,260.1452942,1082,6.158249378,1082,2.141345263,1082,2.119463921,
1079,27.28816032,1079,260.1934509,1079,6.062691689,1079,2.102964878,1079,2.11186409,
1076,27.15021896,1076,260.223114,1076,5.929214954,1076,2.142581701,1076,2.1025455,
1073,27.03735161,1073,260.6630859,1073,5.931838989,1073,2.142145634,1073,2.096529484,
1070,27.18102264,1070,260.640625,1070,5.936635494,1070,2.221096039,1070,2.079746485,
1067,27.25636101,1067,260.8147888,1067,5.88488245,1067,2.091775656,1067,2.031951189,
1064,27.29416466,1064,260.9344177,1064,5.695304871,1064,2.179013968,1064,2.091126204,
1061,27.17012787,1061,261.1319885,1061,5.718254089,1061,2.154782057,1061,2.116233349,
1058,27.20149994,1058,261.3730774,1058,5.82605648,1058,2.137676716,1058,2.072648287,
1055,27.17357635,1055,261.4757996,1055,5.83557415,1055,2.086313725,1055,2.055859327,
1052,27.23149681,1052,261.5882568,1052,5.807140827,1052,2.131592035,1052,2.128228903,
1049,27.32237053,1049,262.0243835,1049,5.668268204,1049,2.158879757,1049,2.020610094,
1046,27.39320755,1046,262.3016357,1046,5.840558052,1046,2.140984774,1046,2.073515892,
1043,27.33086967,1043,262.3802795,1043,5.872758389,1043,2.129682302,1043,2.085141659,
1040,27.33965302,1040,262.4231873,1040,5.851574898,1040,2.111510992,1040,2.040283203,
1037,27.30311775,1037,262.6191406,1037,5.690278053,1037,2.063694,1037,2.043685436,
1034,27.41463852,1034,263.0983582,1034,5.794630527,1034,2.109548569,1034,2.116667271,
1031,27.60991478,1031,263.5179138,1031,5.926984787,1031,2.126800299,1031,2.026484251,
1028,27.73104858,1028,263.7415466,1028,5.836094379,1028,2.125080824,1028,2.017607212,
1025,27.56941223,1025,264.1099854,1025,5.735791683,1025,2.120321035,1025,2.046764374,
1022,27.55475998,1022,264.4782715,1022,5.728946686,1022,2.126453161,1022,1.981228828,
1019,27.55507469,1019,264.7127686,1019,5.962105274,1019,2.188281298,1019,2.067148209,
1016,27.83815575,1016,264.9527893,1016,5.984102726,1016,2.143894672,1016,2.105378389,
1013,27.92407036,1013,265.5227356,1013,5.854798317,1013,2.01722908,1013,2.033412933,
1010,27.85660934,1010,265.9186707,1010,5.853951931,1010,2.049074173,1010,2.087556601,
1007,27.744133,1007,266.7361755,1007,6.00211525,1007,2.145154238,1007,2.059850931,
1004,27.80197525,1004,266.9623108,1004,6.038640976,1004,2.186380386,1004,1.979565263,
1001,27.85504532,1001,267.2048035,1001,5.94974184,1001,2.200252295,1001,2.061361313,
998,27.94780159,998,267.5705566,998,6.036349773,998,2.199591398,998,2.134069443,
995,27.80983162,995,267.8070679,995,6.137218952,995,2.183601379,995,2.025289059,
992,27.69252396,992,267.7736511,992,6.238373756,992,2.203067541,992,2.038091898,
989,27.64473534,989,268.12323,989,6.15970993,989,2.22395277,989,1.995484591,
986,27.70871735,986,267.631073,986,6.33256197,986,2.281838179,986,1.926730156,
983,27.79536247,983,268.0420837,983,6.524684429,983,2.450946569,983,2.013252735,
980,27.67455673,980,267.9518433,980,6.861228466,980,2.601702452,980,1.991466999,
977,27.47508812,977,268.2989502,977,7.093914509,977,2.746104002,977,2.040862799,
974,27.5348568,974,268.393219,974,7.438038826,974,2.809369564,974,1.941337109,
971,27.73257256,971,269.0050049,971,7.818365097,971,3.072356462,971,2.020457506,
968,27.86671829,968,269.7589722,968,8.209108353,968,3.371471643,968,2.026024818,
965,27.74147415,965,270.7936707,965,8.839274406,965,3.710247278,965,1.934872031,
962,27.6913166,962,271.7865601,962,9.342181206,962,4.125078201,962,1.9053092,
959,27.94516373,959,272.6218567,959,10.01099205,959,4.566876888,959,1.866955876,
956,28.05634689,956,273.0353699,956,10.43877983,956,5.137122154,956,2.142327547,
953,28.19151878,953,273.2006226,953,11.15237236,953,5.926288605,953,1.985307813,
950,28.11530495,950,273.3853149,950,12.11176491,950,6.296640396,950,1.923421979,
947,27.93727875,947,273.9348755,947,12.68701839,947,7.003983974,947,1.981096864,
944,28.05437469,944,274.3444824,944,13.52956009,944,7.901865005,944,1.89924109,
941,28.47675323,941,274.7014771,941,14.56374836,941,8.773873329,941,1.758857965,
938,28.18817711,938,275.0753174,938,15.13272858,938,9.815690041,938,1.781754971,
935,28.13630104,935,276.2814941,935,15.82952023,935,10.98156071,935,1.842508793,
932,28.3245182,932,278.2828369,932,16.57698822,932,11.87804031,932,1.873341441,
929,28.69509125,929,279.6488342,929,17.32575989,929,12.9019556,929,1.649325848,
926,28.84354019,926,281.214325,926,17.83678436,926,14.24796009,926,1.793864369,
923,28.60703087,923,282.6419983,923,18.93341637,923,15.42630196,923,1.843552113,
920,28.72188759,920,284.7373657,920,19.63057899,920,16.47371483,920,1.848708987,
917,28.74756432,917,285.8580933,917,19.98455429,917,17.48847198,917,1.761132121,
914,28.70613861,914,286.5846558,914,20.07148361,914,18.64864159,914,1.800959945,
911,28.81773758,911,287.9089355,911,20.51236725,911,19.9233017,911,1.959463716,
908,29.12422943,908,290.2296448,908,20.44430351,908,21.02901268,908,1.84158361,
905,29.2728157,905,290.6975403,905,20.75888062,905,22.25901031,905,1.723057985,
902,28.97332954,902,291.3950195,902,21.72895432,902,23.09999847,902,1.778565526,
899,29.21346474,899,293.4344177,899,22.09356117,899,24.69773674,899,1.984956145,
896,29.79765892,896,296.0254517,896,22.07819939,896,25.16260719,896,2.410017014,
893,29.75050735,893,298.6094666,893,21.45993423,893,26.04720879,893,2.059215784,
890,30.21434212,890,298.4553223,890,21.16004944,890,27.06891823,890,2.204100132,
887,30.49181366,887,301.2235718,887,20.91844368,887,27.87553406,887,1.833729863,
884,30.66628265,884,303.414856,884,20.07159233,884,28.62900734,884,1.903030634,
881,30.5533638,881,305.914093,881,19.3891964,881,28.36117172,881,2.083875656,
878,30.74334908,878,306.6911926,878,17.70876884,878,27.86487007,878,2.750447273,
875,31.29418564,875,309.4283142,875,16.42689896,875,28.28510475,875,2.305094004,
872,31.20750237,872,311.8004456,872,13.88090706,872,27.09537125,872,2.17409873,
869,31.16077232,869,312.1339417,869,11.24422932,869,25.48562622,869,2.609222412,
866,32.17136383,866,313.8041382,866,9.23818779,866,23.27765656,866,2.541736841,
863,32.58169174,863,317.4865723,863,6.871050835,863,21.53657341,863,2.973469257,
860,32.56676483,860,318.7472229,860,5.855456829,860,18.40641403,860,2.319621563,
857,32.93605804,857,322.8176575,857,4.906155109,857,15.95878601,857,3.359686136,
854,33.27630615,854,322.8450623,854,4.43353796,854,12.28859043,854,3.160474777,
851,32.46023941,851,323.5306702,851,4.107801437,851,9.541214943,851,3.144006014,
848,33.60284805,848,327.8773193,848,3.233768702,848,7.065399647,848,2.492390633,
845,33.83436966,845,331.7496338,845,2.879558802,845,4.744233608,845,3.199282646,
842,34.22277832,842,334.011322,842,4.475388527,842,3.983246803,842,2.73511076,
839,34.68227005,839,336.3722229,839,3.921041965,839,3.637888193,839,3.004024029,
836,33.1568985,836,343.4681396,836,2.234114408,836,4.107525349,836,3.661218166,
833,33.86280441,833,345.3986511,833,4.166531086,833,3.271371841,833,3.349084854,
830,34.4536171,830,340.1827087,830,4.701424599,830,5.049322128,830,3.618315935,
827,35.91339111,827,344.0251465,827,4.473073483,827,4.627351284,827,3.256650209,
824,37.28102875,824,350.6153564,824,5.447756767,824,4.624863148,824,3.062596083,
821,34.06984329,821,347.3106689,821,4.554131508,821,2.871972799,821,5.140817165,
818,38.03155899,818,356.884552,818,4.454716206,818,3.382070065,818,4.664449215,
815,35.82251358,815,360.7858276,815,2.76960969,815,5.20678854,815,4.310000896,
812,37.57085037,812,379.4296875,812,3.892403841,812,3.86595726,812,3.399723768,
809,39.37752151,809,376.091156,809,4.589146614,809,6.27237463,809,5.514520645,
806,38.91637802,806,380.1492615,806,4.761659622,806,5.236728191,806,5.934187412,
803,41.6233902,803,395.4264526,803,3.059899092,803,4.753704071,803,5.908169746,
800,42.36185455,800,420.4515991,800,4.236016273,800,5.924630165,800,6.72324276,
798,30.2331295,798,360.9223022,798,0.4892760515,798,0.3402060568,798,0.2421917915,
796,30.32084465,796,358.9028931,796,0.4700855017,796,0.356961906,796,0.3139478266,
794,31.23265457,794,363.7526245,794,0.5137981772,794,0.3464433253,794,0.3317290843,
792,30.68113708,792,359.4831848,792,0.4698733687,792,0.3595769107,792,0.369192332,
790,31.22169876,790,360.3224487,790,0.4973744154,790,0.3726080358,790,0.3236197531,
788,30.14119339,788,361.6721497,788,0.4898067117,788,0.3376813233,788,0.3500720263,
786,31.04067421,786,359.9673157,786,0.4211477041,786,0.3896942735,786,0.2414860576,
784,31.78967857,784,361.7879028,784,0.4412612319,784,0.3996806741,784,0.2847187817,
782,30.62615776,782,361.1212158,782,0.4691019654,782,0.3574830294,782,0.3492029607,
780,30.03003693,780,363.5602722,780,0.4416462183,780,0.3472566903,780,0.3170776069,
778,30.52741241,778,358.8463745,778,0.4893360734,778,0.3695339859,778,0.3094882071,
776,30.98658943,776,362.5937195,776,0.470323801,776,0.3696782887,776,0.3121751249,
774,30.69781113,774,359.9610901,774,0.481469363,774,0.3544288576,774,0.295349896,
772,30.25709915,772,363.5067139,772,0.4426832795,772,0.3528891504,772,0.3143464625,
770,29.88515472,770,359.7156677,770,0.4643471539,770,0.3447474837,770,0.3154163361,
768,30.43515015,768,364.046875,768,0.4450061321,768,0.3447571397,768,0.3093930781,
766,30.88752937,766,360.9275208,766,0.4199638367,766,0.4020557404,766,0.3158691227,
764,29.63458824,764,364.2807922,764,0.4636337161,764,0.3447115123,764,0.303150177,
762,29.5510025,762,359.9976196,762,0.4462170005,762,0.3259863853,762,0.278192699,
760,29.93825912,760,362.9022217,760,0.4415075183,760,0.3254440725,760,0.2794224322,
758,30.28722382,758,359.7911987,758,0.4514832497,758,0.3318178356,758,0.2766256928,
756,29.43216896,756,362.4954834,756,0.4296353459,756,0.3679198623,756,0.2845852077,
754,29.08237076,754,361.7337646,754,0.4238830805,754,0.3041276932,754,0.2594184279,
752,29.00911903,752,362.0536499,752,0.4346853495,752,0.3015692234,752,0.2853522599,
750,29.64484787,750,363.548645,750,0.429721266,750,0.3244248331,750,0.3133766651,
748,28.85429573,748,359.4879456,748,0.4174181223,748,0.3218037188,748,0.3005170524,
746,27.79249573,746,363.2803345,746,0.4521174729,746,0.297280252,746,0.3219371438,
744,27.94611168,744,362.6756287,744,0.4414544106,744,0.3013684154,744,0.2659356594,
742,28.53433418,742,361.4216309,742,0.4028762579,742,0.2830244005,742,0.2928227186,
740,27.17699051,740,363.7669678,740,0.3909503222,740,0.3073133528,740,0.2852579653,
738,26.45198441,738,361.5273132,738,0.4060512781,738,0.281716764,738,0.2719994485,
736,26.71827126,736,361.8310242,736,0.3913390338,736,0.3148853779,736,0.2951024473,
734,26.73066521,734,363.0467224,734,0.383394748,734,0.315920651,734,0.2688777149,
732,25.61943436,732,360.333252,732,0.378374666,732,0.2978967428,732,0.2880341709,
730,24.6093483,730,362.0862427,730,0.3856150508,730,0.3091103733,730,0.2638824284,
728,25.03686905,728,363.0389099,728,0.4121271074,728,0.3131825924,728,0.2621014118,
726,24.54277039,726,361.9616394,726,0.3692778647,726,0.3024775982,726,0.2685496807,
724,23.25661659,724,360.5898438,724,0.3740447462,724,0.3060207367,724,0.2627621293,
722,22.85365677,722,363.3348083,722,0.3743357658,722,0.3007615805,722,0.2871146202,
720,23.08749771,720,362.1702576,720,0.3668193519,720,0.290464133,720,0.2795501053,
718,22.28550529,718,360.4039917,718,0.3601170182,718,0.2867668271,718,0.2404583395,
716,21.19020653,716,361.0742188,716,0.3448099494,716,0.3019427061,716,0.2690897286,
714,20.9603405,714,362.0436096,714,0.3640638292,714,0.2808591425,714,0.2707360387,
712,21.02467537,712,361.4839172,712,0.3347043991,712,0.2755082548,712,0.2591129541,
710,19.94454384,710,360.3354797,710,0.3475454748,710,0.2929033637,710,0.2586275339,
708,19.14906883,708,360.4659424,708,0.3392411768,708,0.2680342197,708,0.2658461332,
706,18.97815514,706,359.8222656,706,0.3254899383,706,0.2637215257,706,0.2481577396,
704,18.6488533,704,361.7936401,704,0.3564980626,704,0.2765971422,704,0.2400651127,
702,17.76197433,702,362.2623291,702,0.3280929923,702,0.2671394348,702,0.2413977832,
700,17.32678032,700,360.5290833,700,0.3124522567,700,0.2854633927,700,0.2216335386,
698,17.14285278,698,360.4618225,698,0.312913686,698,0.261182487,698,0.2364782095,
696,16.16314507,696,360.755249,696,0.3272096515,696,0.2749162614,696,0.2181117684,
694,15.50312805,694,359.9729919,694,0.3075626791,694,0.2588871717,694,0.240196988,
692,15.42477131,692,361.0830078,692,0.3109807074,692,0.2578165233,692,0.2345798314,
690,14.80744648,690,361.4148865,690,0.2890901268,690,0.2655154467,690,0.2352519929,
688,13.95984268,688,360.5570984,688,0.2930939794,688,0.2529150248,688,0.2140461504,
686,13.59126282,686,359.4055786,686,0.3108490109,686,0.2507866025,686,0.2247859687,
684,13.42052364,684,359.2857361,684,0.2839476168,684,0.2488268316,684,0.2314490527,
682,12.6506691,682,360.5223389,682,0.2843420208,682,0.2579943836,682,0.2341765463,
680,12.12741756,680,360.655365,680,0.2868729234,680,0.2535188794,680,0.2111639827,
678,12.01566601,678,358.2406921,678,0.2904170156,678,0.2433677912,678,0.2158545256,
676,11.37135887,676,359.046875,676,0.2767793834,676,0.2428206801,676,0.2296937704,
674,10.8088541,674,359.0007935,674,0.2765315175,674,0.2390132248,674,0.2067071348,
672,10.75933361,672,358.7243042,672,0.2797940373,672,0.2595284581,672,0.213582471,
670,10.26006603,670,357.2626343,670,0.2663227022,670,0.2416785061,670,0.2115162611,
668,9.721805573,668,359.2178955,668,0.2700740993,668,0.2316384763,668,0.2089655101,
666,9.609339714,666,359.3352356,666,0.2640904486,666,0.2269994766,666,0.2084183991,
664,9.265076637,664,357.7517395,664,0.2619969547,664,0.2253395766,664,0.2077953219,
662,8.830811501,662,358.5315857,662,0.2553031445,662,0.2255993932,662,0.2039584368,
660,8.712321281,660,358.6271973,660,0.2607026696,660,0.2306035906,660,0.1928667277,
658,8.605587006,658,357.1782227,658,0.2469898611,658,0.2270755768,658,0.1976277977,
656,8.2631464,656,358.0188904,656,0.2464762032,656,0.2201021612,656,0.2037753314,
654,8.214699745,654,358.6992188,654,0.2536044121,654,0.2182652056,654,0.1988790184,
652,8.188627243,652,358.2897339,652,0.2419995368,652,0.2177403718,652,0.1924083233,
650,8.107549667,650,358.507019,650,0.2380432785,650,0.2278654873,650,0.1837857366,
648,8.222608566,648,359.3225403,648,0.2467391789,648,0.2179220021,648,0.1912475973,
646,8.232739449,646,361.3552856,646,0.2388830334,646,0.2179152966,646,0.1874358654,
644,8.235447884,644,362.2851257,644,0.2413481474,644,0.2106698453,644,0.1861119419,
642,8.562116623,642,362.9108887,642,0.2371632457,642,0.2049685866,642,0.1851654351,
640,8.707126617,640,364.180603,640,0.2358827293,640,0.2081050277,640,0.1928002536,
638,8.839875221,638,365.131134,638,0.2352238446,638,0.2098980546,638,0.1847697049,
636,9.423238754,636,365.410553,636,0.2270302325,636,0.2054628879,636,0.181936875,
634,9.640359879,634,368.4253235,634,0.2279041857,634,0.2032339871,634,0.1809781641,
632,9.98641777,632,368.6264343,632,0.2318419218,632,0.2017218322,632,0.1766245067,
630,10.72455406,630,368.2051697,630,0.2260090709,630,0.2027522326,630,0.1769266874,
628,10.98711777,628,368.447937,628,0.2279445976,628,0.1989485472,628,0.1738227308,
626,11.70848656,626,369.6214905,626,0.2262651622,626,0.2001582384,626,0.1715878695,
624,12.46696949,624,369.1728821,624,0.2220152915,624,0.1902559102,624,0.167581737,
622,12.98077679,622,368.7234192,622,0.2240551412,622,0.1860869527,622,0.1695176363,
620,13.99602604,620,367.3932495,620,0.222448498,620,0.1802706569,620,0.163866654,
618,14.50091457,618,365.1096191,618,0.2157484144,618,0.1894074678,618,0.1647602022,
616,15.27253723,616,365.5826416,616,0.2183351666,616,0.1821062267,616,0.1535849273,
614,16.29834557,614,363.561615,614,0.2239809334,614,0.1808773875,614,0.1590850353,
612,16.51657677,612,360.5767212,612,0.2144957185,612,0.170065105,612,0.1532218009,
610,17.61594772,610,361.7583923,610,0.214844197,610,0.1701485217,610,0.1555825919,
608,18.1916275,608,358.1416016,608,0.2200658023,608,0.1663728952,608,0.1542805433,
606,18.75526047,606,358.2561646,606,0.2154563814,606,0.1721117646,606,0.1535851806,
604,19.85757256,604,357.8845215,604,0.2106963694,604,0.1663704067,604,0.1554089338,
602,19.94657135,602,360.7858276,602,0.2135439962,602,0.1655127555,602,0.1498547941,
600,21.51976585,600,359.9619446,600,0.2102840692,600,0.1641631275,600,0.1465016156,
598,21.80922699,598,363.1642761,598,0.218310371,598,0.1580092609,598,0.1476354897,
596,22.37573433,596,366.2080383,596,0.2136131972,596,0.1586733907,596,0.1419892013,
594,23.80149841,594,370.0589294,594,0.2218937725,594,0.1549006402,594,0.1358188242,
592,23.8015976,592,372.3033142,592,0.2112864256,592,0.1515260935,592,0.1387529969,
590,24.9841404,590,379.0657043,590,0.2140451521,590,0.1571423411,590,0.1420989335,
588,24.4463501,588,379.9742126,588,0.2056584209,588,0.1516736299,588,0.1363014877,
586,25.86581993,586,381.663269,586,0.2104173452,586,0.1454139203,586,0.1322627515,
584,25.2442894,584,383.9882202,584,0.2010251135,584,0.1510022283,584,0.1314211041,
582,25.35204506,582,382.4565735,582,0.2009316832,582,0.1338054538,582,0.1226253361,
580,25.60232353,580,379.9333191,580,0.1924378574,580,0.1261047423,580,0.1171149984,
578,25.07309532,578,378.0897217,578,0.1818135679,578,0.1273201704,578,0.11336907,
576,24.74097443,576,376.8335571,576,0.1769540757,576,0.1212000698,576,0.1157236025,
574,23.74854469,574,371.7330322,574,0.1749343127,574,0.1214160621,574,0.1147262529,
572,24.33576393,572,369.3206482,572,0.1606761217,572,0.1139863282,572,0.09068793058,
570,22.9618187,570,369.2764893,570,0.1548411697,570,0.1016298458,570,0.09690555185,
568,23.18286514,568,363.809082,568,0.1504500806,568,0.09703974426,568,0.08839839697,
566,21.85100937,566,362.1925354,566,0.1370802969,566,0.08927599341,566,0.0879682973,
564,22.18256378,564,361.2761841,564,0.1367451549,564,0.08527962863,564,0.09469497949,
562,21.31360054,562,360.178894,562,0.1207689792,562,0.08560018241,562,0.08632331342,
560,21.56101418,560,359.5157166,560,0.1155110896,560,0.08320206404,560,0.0710708648,
558,20.54167557,558,359.5227661,558,0.1178238988,558,0.07165512443,558,0.06907504797,
556,20.86194992,556,358.7231445,556,0.1055663675,556,0.07076770812,556,0.06694668531,
554,19.90128326,554,357.4197083,554,0.1167052537,554,0.07668705285,554,0.05396251753,
552,20.17049217,552,357.9095764,552,0.1166359484,552,0.06707941741,552,0.07150579244,
550,19.37708855,550,357.4995422,550,0.1072836593,550,0.06121788174,550,0.06849587709,
548,19.89482498,548,355.6604004,548,0.1054968908,548,0.0562653169,548,0.06024257839,
546,19.11688232,546,355.8633423,546,0.1029814631,546,0.06166120991,546,0.06315042824,
544,18.94824409,544,349.5498352,544,0.1041354835,544,0.05608850718,544,0.06178864837,
542,18.07600784,542,349.525177,542,0.0940046981,542,0.06341397017,542,0.05702184141,
540,18.65036964,540,349.989502,540,0.1074381024,540,0.06064726785,540,0.06047166139,
538,18.16142082,538,353.0341187,538,0.1000932902,538,0.05773030594,538,0.05601829663,
536,18.27642822,536,354.2893982,536,0.09918791801,536,0.05130040273,536,0.05488523841,
534,18.47221565,534,350.9465637,534,0.09954459965,534,0.05160798132,534,0.05301699787,
532,18.27324295,532,351.5203247,532,0.1014137641,532,0.0577673912,532,0.05233658478,
530,18.37489891,530,353.4782104,530,0.09641148895,530,0.05163071305,530,0.05980286002,
528,18.17864799,528,352.6717529,528,0.0977794677,528,0.0552309677,528,0.04985525087,
526,18.73888779,526,351.6600952,526,0.1012975201,526,0.06045391038,526,0.05236154422,
524,18.241045,524,353.841156,524,0.09823354334,524,0.04234929383,524,0.04355229437,
522,18.45505142,522,353.2155151,522,0.09198900312,522,0.05965422466,522,0.05968798697,
520,18.75156593,520,350.6642456,520,0.09790497273,520,0.05121541768,520,0.0585905686,
518,18.62335396,518,353.9880371,518,0.1006894261,518,0.05542152375,518,0.04957849905,
516,19.10728455,516,354.0909424,516,0.09045932442,516,0.05448582768,516,0.05268772319,
514,19.00130844,514,352.3164368,514,0.09619686753,514,0.0474072136,514,0.04764410853,
512,19.42440033,512,352.0028687,512,0.09712935984,512,0.04720513523,512,0.05128590763,
510,19.76817513,510,353.1558838,510,0.09927845001,510,0.04893589765,510,0.04305453971,
508,19.52622223,508,352.0497437,508,0.09547954053,508,0.05339501798,508,0.0453553386,
506,19.89620972,506,351.5842285,506,0.09846533835,506,0.04924588278,506,0.05036719516,
504,20.15097046,504,352.318634,504,0.09530968219,504,0.05719532445,504,0.03839001805,
502,19.95513535,502,351.3505554,502,0.09467332065,502,0.04717122018,502,0.04220972955,
500,20.35775948,500,351.1178589,500,0.08354961127,500,0.0324463509,500,0.03248088807,
498,20.42087555,498,351.6295166,498,0.09674994648,498,0.03995319828,498,0.04167884961,
496,20.20768738,496,350.3541565,496,0.100345701,496,0.0465881899,496,0.03745359555,
494,20.23108101,494,350.6833496,494,0.09258789569,494,0.04460414127,494,0.04817546904,
492,20.27602005,492,351.56604,492,0.09236193448,492,0.03924184293,492,0.03634575754,
490,20.0847187,490,351.2821655,490,0.09318879247,490,0.04011712223,490,0.04097941518,
488,19.87252617,488,350.1203308,488,0.09096649289,488,0.03586512059,488,0.02943071909,
486,20.03344154,486,350.5056763,486,0.09800570458,486,0.04233893007,486,0.03720296547,
484,19.89116096,484,350.7900085,484,0.08338259161,484,0.04440827668,484,0.03496018052,
482,19.26586151,482,349.6396484,482,0.09562544525,482,0.0364764221,482,0.04164256528,
480,18.27159882,480,349.2045288,480,0.08567053825,480,0.04195962846,480,0.02727630176,
478,16.88406372,478,349.3813477,478,0.07948106527,478,0.03736470267,478,0.04401260987,
476,14.58701897,476,348.8015442,476,0.07190622389,476,0.03912969679,476,0.02568457276,
474,11.9583931,474,348.785553,474,0.06429973245,474,0.03036107495,474,0.03799219429,
472,9.957792282,472,349.5760193,472,0.06655199826,472,0.04543116316,472,0.03646463901,
470,8.341528893,470,348.7079468,470,0.05950409546,470,0.03594963625,470,0.03568255156,
468,6.805638313,468,347.7189636,468,0.05278718844,468,0.03552909568,468,0.02281645313,
466,5.563980103,466,348.7197266,466,0.05141940713,466,0.03151002899,466,0.03417943418,
464,4.671454906,464,349.217865,464,0.0445612222,464,0.02976526506,464,0.03336215392,
462,4.105873585,462,348.302063,462,0.03553948551,462,0.02971566282,462,0.02951593138,
460,3.721372843,460,348.5412292,460,0.04549297318,460,0.0208411403,460,0.03714609146,
458,3.792614222,458,349.4131165,458,0.04066303745,458,0.03138719872,458,0.03181056306,
456,4.363399982,456,345.8806763,456,0.03777761385,456,0.0404991284,456,0.02710698731,
454,5.183019638,454,346.1486511,454,0.03617765754,454,0.02984129265,454,0.02959338948,
452,6.014627934,452,347.9729614,452,0.04157391191,452,0.02641853876,452,0.01724922657,
450,6.324819565,450,346.9959106,450,0.04907257855,450,0.03103930131,450,0.02801059186,
448,5.749065399,448,346.4580994,448,0.04376804084,448,0.04747292399,448,0.02228335664,
446,4.181633472,446,346.894989,446,0.02988163009,446,0.02341479622,446,0.02167772502,
444,2.493305445,444,348.0923767,444,0.02382957563,444,0.02324588783,444,0.02608079277,
442,1.439962983,442,346.5930176,442,0.03192722052,442,0.02789491601,442,0.02832648158,
440,0.9674991369,440,346.6324158,440,0.02668228745,440,0.01653243788,440,0.02348521166,
438,0.8488689661,438,348.7787781,438,0.008913277648,438,0.02450166829,438,0.03013288602,
436,0.8371782303,436,347.5561829,436,0.0347978957,436,0.02025265619,436,0.02921219915,
434,0.8250920773,434,347.7387085,434,0.02946029045,434,0.03460967541,434,0.02518218569,
432,0.8529393673,432,348.9558411,432,0.02454558201,432,0.03220409155,432,0.02181607485,
430,0.8397458792,430,349.8725891,430,0.03228502721,430,0.03052321821,430,0.03757994995,
428,0.8524227738,428,348.4883423,428,0.02769338898,428,0.02407857217,428,0.03155051172,
426,0.8307197094,426,349.6950378,426,0.02854792029,426,0.01696694642,426,0.01752988994,
424,0.8349936604,424,351.0737915,424,0.02389216982,424,0.02475700155,424,0.02548236586,
422,0.8588532805,422,353.2884216,422,0.02410235256,422,0.02377795242,422,0.0307747256,
420,0.8656645417,420,351.8643494,420,0.01458680909,420,0.01744226739,420,0.0250067506,
418,0.8534724712,418,353.0478516,418,0.03286677971,418,0.03413110971,418,0.02890576981,
416,0.844917357,416,354.6927795,416,0.02808141522,416,0.03035268374,416,0.01600201987,
414,0.8452091217,414,353.8162842,414,0.02370318025,414,0.02075842209,414,0.008800260723,
412,0.8608915806,412,352.8777466,412,0.01933238469,412,0.02712116949,412,0.009754087776,
410,0.8529737592,410,355.0593262,410,0.01862930879,410,0.01809992827,410,0.02711663209,
408,0.833643496,408,355.7587585,408,0.03054383583,408,0.02910074592,408,0.02126258798,
406,0.8251463175,406,355.5714722,406,0.03673407063,406,0.02192155644,406,0.01697485335,
404,0.8416692019,404,355.5921936,404,-0.01210587472,404,0.01876851358,404,0.0261765141,
402,0.8566541672,402,354.5800781,402,-0.0032459863,402,0.02619889565,402,0.0299466271,
400,0.8534504175,400,354.6867371,400,0.03636040911,400,0.01003460027,400,0.01981731318,

MnPS3,
Hole
Collection Time: 17/11/2023 2:29:31 PM
Operator Name  :
Scan Software Version: 4.10(464)
Parameter List :
Instrument                        Cary 5000
Instrument Version                1.12
Start (nm)                        2000.00
Stop (nm)                         400.00
X Mode                            Nanometers
Y Mode                            %T
Independent NIR                   On
Measurement Mode                  Auto
UV-Vis Data Interval (nm)         2.00
UV-Vis Ave. Time (sec)            0.100
UV-Vis SBW (nm)                   2.000
NIR Scan Rate (nm/min)            1800.000
NIR Data Interval (nm)            3.00
NIR Ave. Time (sec)               0.100
NIR Energy                        3.00
Slit Height                       Full
Beam Mode                         Double
Signal-to-noise Mode              Off
UV Source                         On
Vis Source                        On
Third Source                      Off
Source Changeover (nm)            350.00
Detector Changeover (nm)          800.00
Grating Changeover (nm)           800.00
Baseline Correction               Off
Cycle Mode                        Off
Comments
Method Log     :
Method Name    :
Date/Time stamp: 17/11/2023 11:47:17 AM
Method Modifications:
X Start nm Changed: 17/11/2023 11:57:29 AM, Old: 800.00, New:2000.00
X Stop nm Changed: 17/11/2023 11:57:29 AM, Old: 200.00, New: 400.00
Idpt Control Changed: 17/11/2023 11:57:29 AM, Old:0, New:1
UVVIS Interval nm Changed: 17/11/2023 11:57:29 AM, Old:     1.00, New:     2.00
NIR Scan Rate nm Changed: 17/11/2023 11:57:29 AM, Old:  600.000, New: 1800.000
NIR Interval nm Changed: 17/11/2023 11:57:29 AM, Old:     1.00, New:     3.00
Y mode Changed: 17/11/2023 11:59:29 AM, Old:Abs, New:%T
Storage Changed: 17/11/2023 12:41:24 PM, Old:1, New:0
Saved as C:\users\Janek_Suffczynski\Leon_thiophosphates\2023-11-17\d002_approx-100K.BSW
End Method Modifications
<SBW (nm)> , 2.00
<Energy> , 3.00
<Slit height> , Full
<Current Wavelength> , 800.00
<SBW (nm)> , 2.00
<Energy> , 912.01
<Slit height> , Full
<Current Wavelength> , 400.00
Continuum name changed to 'MnPS3'

Hole,
Hole
Collection Time: 17/11/2023 2:34:04 PM
Operator Name  :
Scan Software Version: 4.10(464)
Parameter List :
Instrument                        Cary 5000
Instrument Version                1.12
Start (nm)                        2000.00
Stop (nm)                         400.00
X Mode                            Nanometers
Y Mode                            %T
Independent NIR                   On
Measurement Mode                  Auto
UV-Vis Data Interval (nm)         2.00
UV-Vis Ave. Time (sec)            0.100
UV-Vis SBW (nm)                   2.000
NIR Scan Rate (nm/min)            1800.000
NIR Data Interval (nm)            3.00
NIR Ave. Time (sec)               0.100
NIR Energy                        3.00
Slit Height                       Full
Beam Mode                         Double
Signal-to-noise Mode              Off
UV Source                         On
Vis Source                        On
Third Source                      Off
Source Changeover (nm)            350.00
Detector Changeover (nm)          800.00
Grating Changeover (nm)           800.00
Baseline Correction               Off
Cycle Mode                        Off
Comments
Method Log     :
Method Name    :
Date/Time stamp: 17/11/2023 11:47:17 AM
Method Modifications:
X Start nm Changed: 17/11/2023 11:57:29 AM, Old: 800.00, New:2000.00
X Stop nm Changed: 17/11/2023 11:57:29 AM, Old: 200.00, New: 400.00
Idpt Control Changed: 17/11/2023 11:57:29 AM, Old:0, New:1
UVVIS Interval nm Changed: 17/11/2023 11:57:29 AM, Old:     1.00, New:     2.00
NIR Scan Rate nm Changed: 17/11/2023 11:57:29 AM, Old:  600.000, New: 1800.000
NIR Interval nm Changed: 17/11/2023 11:57:29 AM, Old:     1.00, New:     3.00
Y mode Changed: 17/11/2023 11:59:29 AM, Old:Abs, New:%T
Storage Changed: 17/11/2023 12:41:24 PM, Old:1, New:0
Saved as C:\users\Janek_Suffczynski\Leon_thiophosphates\2023-11-17\d002_approx-100K.BSW
End Method Modifications
<SBW (nm)> , 2.00
<Energy> , 3.00
<Slit height> , Full
<Current Wavelength> , 800.00
<SBW (nm)> , 2.00
<Energy> , 501.19
<Slit height> , Full
<Current Wavelength> , 400.00

CrPS4,
CrPS4
Collection Time: 17/11/2023 2:37:51 PM
Operator Name  :
Scan Software Version: 4.10(464)
Parameter List :
Instrument                        Cary 5000
Instrument Version                1.12
Start (nm)                        2000.00
Stop (nm)                         400.00
X Mode                            Nanometers
Y Mode                            %T
Independent NIR                   On
Measurement Mode                  Auto
UV-Vis Data Interval (nm)         2.00
UV-Vis Ave. Time (sec)            0.100
UV-Vis SBW (nm)                   2.000
NIR Scan Rate (nm/min)            1800.000
NIR Data Interval (nm)            3.00
NIR Ave. Time (sec)               0.100
NIR Energy                        3.00
Slit Height                       Full
Beam Mode                         Double
Signal-to-noise Mode              Off
UV Source                         On
Vis Source                        On
Third Source                      Off
Source Changeover (nm)            350.00
Detector Changeover (nm)          800.00
Grating Changeover (nm)           800.00
Baseline Correction               Off
Cycle Mode                        Off
Comments
Method Log     :
Method Name    :
Date/Time stamp: 17/11/2023 11:47:17 AM
Method Modifications:
X Start nm Changed: 17/11/2023 11:57:29 AM, Old: 800.00, New:2000.00
X Stop nm Changed: 17/11/2023 11:57:29 AM, Old: 200.00, New: 400.00
Idpt Control Changed: 17/11/2023 11:57:29 AM, Old:0, New:1
UVVIS Interval nm Changed: 17/11/2023 11:57:29 AM, Old:     1.00, New:     2.00
NIR Scan Rate nm Changed: 17/11/2023 11:57:29 AM, Old:  600.000, New: 1800.000
NIR Interval nm Changed: 17/11/2023 11:57:29 AM, Old:     1.00, New:     3.00
Y mode Changed: 17/11/2023 11:59:29 AM, Old:Abs, New:%T
Storage Changed: 17/11/2023 12:41:24 PM, Old:1, New:0
Saved as C:\users\Janek_Suffczynski\Leon_thiophosphates\2023-11-17\d002_approx-100K.BSW
End Method Modifications
<SBW (nm)> , 2.00
<Energy> , 3.00
<Slit height> , Full
<Current Wavelength> , 800.00
<SBW (nm)> , 2.00
<Energy> , 912.01
<Slit height> , Full
<Current Wavelength> , 400.00

NiPS3,
NiPS3
Collection Time: 17/11/2023 2:40:53 PM
Operator Name  :
Scan Software Version: 4.10(464)
Parameter List :
Instrument                        Cary 5000
Instrument Version                1.12
Start (nm)                        2000.00
Stop (nm)                         400.00
X Mode                            Nanometers
Y Mode                            %T
Independent NIR                   On
Measurement Mode                  Auto
UV-Vis Data Interval (nm)         2.00
UV-Vis Ave. Time (sec)            0.100
UV-Vis SBW (nm)                   2.000
NIR Scan Rate (nm/min)            1800.000
NIR Data Interval (nm)            3.00
NIR Ave. Time (sec)               0.100
NIR Energy                        3.00
Slit Height                       Full
Beam Mode                         Double
Signal-to-noise Mode              Off
UV Source                         On
Vis Source                        On
Third Source                      Off
Source Changeover (nm)            350.00
Detector Changeover (nm)          800.00
Grating Changeover (nm)           800.00
Baseline Correction               Off
Cycle Mode                        Off
Comments
Method Log     :
Method Name    :
Date/Time stamp: 17/11/2023 11:47:17 AM
Method Modifications:
X Start nm Changed: 17/11/2023 11:57:29 AM, Old: 800.00, New:2000.00
X Stop nm Changed: 17/11/2023 11:57:29 AM, Old: 200.00, New: 400.00
Idpt Control Changed: 17/11/2023 11:57:29 AM, Old:0, New:1
UVVIS Interval nm Changed: 17/11/2023 11:57:29 AM, Old:     1.00, New:     2.00
NIR Scan Rate nm Changed: 17/11/2023 11:57:29 AM, Old:  600.000, New: 1800.000
NIR Interval nm Changed: 17/11/2023 11:57:29 AM, Old:     1.00, New:     3.00
Y mode Changed: 17/11/2023 11:59:29 AM, Old:Abs, New:%T
Storage Changed: 17/11/2023 12:41:24 PM, Old:1, New:0
Saved as C:\users\Janek_Suffczynski\Leon_thiophosphates\2023-11-17\d002_approx-100K.BSW
End Method Modifications
<SBW (nm)> , 2.00
<Energy> , 3.00
<Slit height> , Full
<Current Wavelength> , 800.00
<SBW (nm)> , 2.00
<Energy> , 912.01
<Slit height> , Full
<Current Wavelength> , 400.00

FePS3,
FePS3
Collection Time: 17/11/2023 2:48:16 PM
Operator Name  :
Scan Software Version: 4.10(464)
Parameter List :
Instrument                        Cary 5000
Instrument Version                1.12
Start (nm)                        2000.00
Stop (nm)                         400.00
X Mode                            Nanometers
Y Mode                            %T
Independent NIR                   On
Measurement Mode                  Auto
UV-Vis Data Interval (nm)         2.00
UV-Vis Ave. Time (sec)            0.100
UV-Vis SBW (nm)                   2.000
NIR Scan Rate (nm/min)            1800.000
NIR Data Interval (nm)            3.00
NIR Ave. Time (sec)               0.100
NIR Energy                        3.00
Slit Height                       Full
Beam Mode                         Double
Signal-to-noise Mode              Off
UV Source                         On
Vis Source                        On
Third Source                      Off
Source Changeover (nm)            350.00
Detector Changeover (nm)          800.00
Grating Changeover (nm)           800.00
Baseline Correction               Off
Cycle Mode                        Off
Comments
Method Log     :
Method Name    :
Date/Time stamp: 17/11/2023 11:47:17 AM
Method Modifications:
X Start nm Changed: 17/11/2023 11:57:29 AM, Old: 800.00, New:2000.00
X Stop nm Changed: 17/11/2023 11:57:29 AM, Old: 200.00, New: 400.00
Idpt Control Changed: 17/11/2023 11:57:29 AM, Old:0, New:1
UVVIS Interval nm Changed: 17/11/2023 11:57:29 AM, Old:     1.00, New:     2.00
NIR Scan Rate nm Changed: 17/11/2023 11:57:29 AM, Old:  600.000, New: 1800.000
NIR Interval nm Changed: 17/11/2023 11:57:29 AM, Old:     1.00, New:     3.00
Y mode Changed: 17/11/2023 11:59:29 AM, Old:Abs, New:%T
Storage Changed: 17/11/2023 12:41:24 PM, Old:1, New:0
Saved as C:\users\Janek_Suffczynski\Leon_thiophosphates\2023-11-17\d002_approx-100K.BSW
End Method Modifications
<SBW (nm)> , 2.00
<Energy> , 3.00
<Slit height> , Full
<Current Wavelength> , 799.00
<SBW (nm)> , 2.00
<Energy> , 870.96
<Slit height> , Full
<Current Wavelength> , 399.00

