FePS3,,NiPS3,,CrPS4,,MnPS3,,Hole,,
Wavelength (nm),%T,Wavelength (nm),%T,Wavelength (nm),%T,Wavelength (nm),%T,Wavelength (nm),%T,
1400,1.051076651,1400,0.6805120111,1400,0.4019939899,1400,1.330155373,1400,2.738993883,
1397,1.106556535,1397,0.6701097488,1397,0.379299432,1397,1.397558451,1397,3.027266026,
1394,1.134145021,1394,0.6537566185,1394,0.4223973155,1394,1.352404475,1394,2.943760633,
1391,1.082691789,1391,0.623587966,1391,0.4113299251,1391,1.295825243,1391,2.70024538,
1388,1.131591082,1388,0.7382360101,1388,0.3966497183,1388,1.324522614,1388,2.894798517,
1385,1.165620208,1385,0.7311204076,1385,0.4208616018,1385,1.295930386,1385,2.869230986,
1382,1.114550352,1382,0.7034981251,1382,0.4195588231,1382,1.294477701,1382,2.724254847,
1379,1.055882931,1379,0.6961914301,1379,0.3907206059,1379,1.295395374,1379,2.870433569,
1376,1.123099923,1376,0.6662682891,1376,0.4056335092,1376,1.435580969,1376,3.002808332,
1373,1.090066671,1373,0.6442483068,1373,0.4096201956,1373,1.449279547,1373,2.786304235,
1370,1.093414664,1370,0.654471457,1370,0.393220216,1370,1.384583592,1370,2.821581125,
1367,1.139422894,1367,0.7346916795,1367,0.4105484486,1367,1.334746957,1367,2.875599384,
1364,1.128803492,1364,0.7158821821,1364,0.4253706336,1364,1.254438758,1364,2.763865471,
1361,1.08912468,1361,0.7110694051,1361,0.4144365489,1361,1.225686669,1361,2.684137583,
1358,1.085328341,1358,0.7158207893,1358,0.3902329504,1358,1.225260139,1358,2.935488701,
1355,1.108836412,1355,0.660548985,1355,0.4087395966,1355,1.390468955,1355,2.942897081,
1352,1.085503697,1352,0.630738616,1352,0.4087067246,1352,1.424691439,1352,2.799797535,
1349,1.110868216,1349,0.6435189247,1349,0.3878398538,1349,1.408509016,1349,2.867476463,
1346,1.167603254,1346,0.7049536109,1346,0.4059190452,1346,1.415454626,1346,2.970993042,
1343,1.166387796,1343,0.7000178695,1343,0.4208958149,1343,1.280978203,1343,2.849195719,
1340,1.131075621,1340,0.693972528,1340,0.4061928988,1340,1.252547979,1340,2.746020079,
1337,1.113855004,1337,0.6982857585,1337,0.3787022233,1337,1.236330152,1337,2.984921455,
1334,1.134864569,1334,0.6594675779,1334,0.3935982883,1334,1.356677294,1334,3.062961102,
1331,1.116100192,1331,0.6262895465,1331,0.4039512575,1331,1.423233151,1331,2.907111883,
1328,1.118535042,1328,0.6381890774,1328,0.3907687366,1328,1.398935795,1328,2.812440395,
1325,1.150455952,1325,0.6866694689,1325,0.3922590911,1325,1.374501944,1325,2.902448416,
1322,1.169498205,1322,0.7123609781,1322,0.4047456682,1322,1.337929487,1322,2.962726831,
1319,1.155637264,1319,0.6916204691,1319,0.4109634459,1319,1.303798556,1319,2.817811489,
1316,1.110014439,1316,0.6908230186,1316,0.3867734373,1316,1.271677256,1316,2.83856082,
1313,1.103789806,1313,0.6466934085,1313,0.3779498041,1313,1.31469667,1313,2.96124649,
1310,1.118494153,1310,0.6383912563,1310,0.3880160153,1310,1.343426704,1310,3.034763098,
1307,1.123781085,1307,0.6436870098,1307,0.4007333815,1307,1.403733253,1307,2.879932404,
1304,1.127175927,1304,0.6665350199,1304,0.4033486843,1304,1.365115881,1304,2.730565786,
1301,1.134139538,1301,0.7138112187,1301,0.3924893737,1301,1.332233906,1301,2.827693224,
1298,1.141911507,1298,0.7061672211,1298,0.3948493898,1298,1.357380271,1298,2.925731897,
1295,1.119455934,1295,0.7046210766,1295,0.3968316913,1295,1.336812973,1295,2.924572229,
1292,1.091235042,1292,0.6462497115,1292,0.3902286887,1292,1.350289464,1292,2.83161664,
1289,1.094844699,1289,0.6363739967,1289,0.381655395,1289,1.298136115,1289,2.861759663,
1286,1.114875317,1286,0.6384021044,1286,0.3777153194,1286,1.339924097,1286,2.941529751,
1283,1.140386701,1283,0.6667349339,1283,0.3952296376,1283,1.382112265,1283,2.894195318,
1280,1.137163997,1280,0.7080680728,1280,0.4040318131,1280,1.337506413,1280,2.81001091,
1277,1.131147861,1277,0.6993759274,1277,0.4022829235,1277,1.331711054,1277,2.752024412,
1274,1.111174107,1274,0.7113845348,1274,0.3867408335,1274,1.27051425,1274,2.827958345,
1271,1.090672374,1271,0.6568058729,1271,0.3757145405,1271,1.329065442,1271,2.925372362,
1268,1.097818375,1268,0.6428293586,1268,0.3799158633,1268,1.37217164,1268,2.962952375,
1265,1.101400137,1265,0.6341074705,1265,0.3850865364,1265,1.385217667,1265,2.914290428,
1262,1.133663893,1262,0.6701555848,1262,0.398647368,1262,1.378964543,1262,2.758464098,
1259,1.130608678,1259,0.7068170309,1259,0.3951676786,1259,1.28171432,1259,2.73249507,
1256,1.127236366,1256,0.7038860321,1256,0.3883011937,1256,1.311009645,1256,2.786975622,
1253,1.109596729,1253,0.7053210735,1253,0.3836323619,1253,1.309045911,1253,2.892093658,
1250,1.083398581,1250,0.6570400596,1250,0.3784227967,1250,1.348630309,1250,2.935591459,
1247,1.085151315,1247,0.6432579756,1247,0.3839950264,1247,1.362715125,1247,2.8890481,
1244,1.089749336,1244,0.6385991573,1244,0.3841329813,1244,1.33866477,1244,2.83778429,
1241,1.124199986,1241,0.6767225266,1241,0.3932011724,1241,1.350864291,1241,2.727680922,
1238,1.125976205,1238,0.7134169936,1238,0.3896538019,1238,1.280336976,1238,2.748620272,
1235,1.120146394,1235,0.7115609646,1235,0.3885997236,1235,1.313704848,1235,2.785300016,
1232,1.100561619,1232,0.7033362985,1232,0.382610321,1232,1.299782753,1232,2.863609314,
1229,1.072285175,1229,0.6660419703,1229,0.380025655,1229,1.34602952,1229,2.895991087,
1226,1.071321368,1226,0.6447620988,1226,0.3797327876,1226,1.376022816,1226,2.850192785,
1223,1.077051759,1223,0.6436904073,1223,0.3813127875,1223,1.386775494,1223,2.826082945,
1220,1.115029931,1220,0.6760214567,1220,0.3891555965,1220,1.352680802,1220,2.717657328,
1217,1.111924291,1217,0.711122036,1217,0.3876186907,1217,1.291410685,1217,2.717344761,
1214,1.114959955,1214,0.7194562554,1214,0.3897975981,1214,1.29871726,1214,2.723700285,
1211,1.091921091,1211,0.7077905536,1211,0.3793445528,1211,1.286856413,1211,2.793784618,
1208,1.063005924,1208,0.6825270653,1208,0.3785775006,1208,1.328259706,1208,2.840600252,
1205,1.059046268,1205,0.6484992504,1205,0.3781449199,1205,1.336292744,1205,2.826089144,
1202,1.062170625,1202,0.6550989151,1202,0.3764261305,1202,1.361161709,1202,2.816556215,
1199,1.091287851,1199,0.6741302609,1199,0.3839929998,1199,1.36586535,1199,2.725926876,
1196,1.102925301,1196,0.6312208772,1196,0.3747090995,1196,1.462443948,1196,2.91076684,
1193,1.127639651,1193,0.6410427094,1193,0.3738336563,1193,1.450058818,1193,2.876748323,
1190,1.151544929,1190,0.6688956022,1190,0.3812863827,1190,1.408733845,1190,2.787528992,
1187,1.161316276,1187,0.7132191658,1187,0.3821780086,1187,1.247012496,1187,2.781908035,
1184,1.159646392,1184,0.7024195194,1184,0.3792442381,1184,1.234066725,1184,2.782343626,
1181,1.136446953,1181,0.7022581697,1181,0.3732246459,1181,1.221978664,1181,2.861800671,
1178,1.117976189,1178,0.6506305933,1178,0.3666624725,1178,1.324709296,1178,2.871664762,
1175,1.114991546,1175,0.6266227365,1175,0.3623356819,1175,1.357243061,1175,2.886973619,
1172,1.128507614,1172,0.6282577515,1172,0.3657515645,1172,1.390206456,1172,2.880496264,
1169,1.145634651,1169,0.6450092196,1169,0.3778388202,1169,1.323226213,1169,2.821831703,
1166,1.148885131,1166,0.6936412454,1166,0.3785140216,1166,1.236586928,1166,2.818985224,
1163,1.140653491,1163,0.6804535389,1163,0.3763470352,1163,1.189827204,1163,2.831493616,
1160,1.124691844,1160,0.6899290085,1160,0.371766001,1160,1.267125607,1160,2.895136356,
1157,1.098580837,1157,0.6384161115,1157,0.3620965779,1157,1.35405004,1157,2.909976959,
1154,1.097816467,1154,0.6267888546,1154,0.3646994829,1154,1.408578873,1154,2.91392231,
1151,1.105138421,1151,0.6193442941,1151,0.3656492531,1151,1.329735994,1151,2.900299549,
1148,1.130414248,1148,0.6454543471,1148,0.3734222949,1148,1.329140544,1148,2.828754187,
1145,1.136564255,1145,0.691922307,1145,0.379686296,1145,1.253728747,1145,2.80646801,
1142,1.130169511,1142,0.6817395091,1142,0.3785758317,1142,1.273211718,1142,2.819150686,
1139,1.11987555,1139,0.6927242875,1139,0.3738192618,1139,1.304888248,1139,2.869408846,
1136,1.093112707,1136,0.6468346119,1136,0.3578677475,1136,1.387822032,1136,2.904844046,
1133,1.094664931,1133,0.6233918667,1133,0.3659229875,1133,1.377046585,1133,2.884642124,
1130,1.099883914,1130,0.6185219884,1130,0.3615562916,1130,1.348146081,1130,2.879518747,
1127,1.137996197,1127,0.6449697018,1127,0.3731943369,1127,1.310803175,1127,2.810928822,
1124,1.139874697,1124,0.6899377108,1124,0.3772883117,1124,1.2740556,1124,2.791409254,
1121,1.137605429,1121,0.692923069,1121,0.3767698705,1121,1.304125428,1121,2.793100357,
1118,1.129465938,1118,0.6925272346,1118,0.373641938,1118,1.31320715,1118,2.827871323,
1115,1.100025177,1115,0.658826232,1115,0.3587598801,1115,1.291446924,1115,2.870153904,
1112,1.110050082,1112,0.6360610723,1112,0.3649799228,1112,1.317916155,1112,2.855226517,
1109,1.109652638,1109,0.6345267296,1109,0.3612137735,1109,1.350145221,1109,2.858918428,
1106,1.146794438,1106,0.6536332369,1106,0.3695630431,1106,1.350601315,1106,2.787298918,
1103,1.14345181,1103,0.695944488,1103,0.3725686669,1103,1.353124738,1103,2.77424407,
1100,1.141584754,1100,0.7075797319,1100,0.3742794693,1100,1.302236795,1100,2.774701595,
1097,1.126723766,1097,0.6976636648,1097,0.3704048097,1097,1.272098899,1097,2.814891577,
1094,1.090384364,1094,0.6767249703,1094,0.3589529991,1094,1.2617625,1094,2.862773657,
1091,1.093563199,1091,0.6302965283,1091,0.3604259789,1091,1.338485122,1091,2.847366333,
1088,1.092498422,1088,0.6353346705,1088,0.3617392182,1088,1.407868743,1088,2.855528593,
1085,1.129060864,1085,0.6506901979,1085,0.3705994785,1085,1.404684663,1085,2.781625271,
1082,1.132047892,1082,0.6940693259,1082,0.3736979365,1082,1.305308461,1082,2.760290861,
1079,1.133447528,1079,0.7061191201,1079,0.3751111329,1079,1.230885029,1079,2.747379065,
1076,1.121335626,1076,0.6997464299,1076,0.3685210943,1076,1.241524577,1076,2.789931536,
1073,1.090364575,1073,0.6899303198,1073,0.3615452349,1073,1.320728898,1073,2.83109355,
1070,1.086049795,1070,0.6295335293,1070,0.3619390726,1070,1.369961381,1070,2.824854136,
1067,1.085781574,1067,0.6419938803,1067,0.3616978526,1067,1.37445724,1067,2.822934389,
1064,1.115790844,1064,0.6497475505,1064,0.3652167618,1064,1.339908481,1064,2.760844707,
1061,1.1216259,1061,0.704261899,1061,0.3756724,1061,1.285435677,1061,2.732358456,
1058,1.118646979,1058,0.7075455785,1058,0.3740600646,1058,1.286400914,1058,2.722079754,
1055,1.111975908,1055,0.7014778852,1055,0.3718466759,1055,1.297919035,1055,2.763247728,
1052,1.076619029,1052,0.6963887215,1052,0.3629655242,1052,1.311502457,1052,2.799570799,
1049,1.0750705,1049,0.634793818,1049,0.3597961664,1049,1.311470628,1049,2.799943924,
1046,1.075644016,1046,0.6501226425,1046,0.3617239296,1046,1.317415357,1046,2.786546946,
1043,1.095891237,1043,0.6518697143,1043,0.3673202991,1043,1.352775812,1043,2.732535362,
1040,1.104469419,1040,0.7079775333,1040,0.3736598492,1040,1.329785466,1040,2.692076921,
1037,1.100702882,1037,0.7027337551,1037,0.3704327047,1037,1.256437659,1037,2.685353756,
1034,1.09483242,1034,0.7056265473,1034,0.37087816,1034,1.239705205,1034,2.710725784,
1031,1.061284304,1031,0.7047851086,1031,0.3601766527,1031,1.240824223,1031,2.751189232,
1028,1.049659252,1028,0.6451685429,1028,0.3622014821,1028,1.328676105,1028,2.753866196,
1025,1.054035902,1025,0.6526986361,1025,0.3615189195,1025,1.378141999,1025,2.735906363,
1022,1.074322581,1022,0.6584441066,1022,0.3612884581,1022,1.311843634,1022,2.692723036,
1019,1.081484675,1019,0.7147321105,1019,0.3686170578,1019,1.270499706,1019,2.63360858,
1016,1.06862843,1016,0.7083296776,1016,0.3684771061,1016,1.234539151,1016,2.63216114,
1013,1.070884466,1013,0.7082933187,1013,0.3645668328,1013,1.274465919,1013,2.641371965,
1010,1.042487621,1010,0.7071636319,1010,0.3578957319,1010,1.276123405,1010,2.684755325,
1007,1.026058197,1007,0.6652635336,1007,0.3620906472,1007,1.317581296,1007,2.679726362,
1004,1.022783518,1004,0.6517539024,1004,0.3545432389,1004,1.289972663,1004,2.661937714,
1001,1.038997889,1001,0.662609756,1001,0.3507822752,1001,1.292634368,1001,2.627673388,
998,1.047895074,998,0.7113000751,998,0.3584248126,998,1.341165781,998,2.555347681,
995,1.032125115,995,0.7108769417,995,0.352314353,995,1.249874592,995,2.55019474,
992,1.037172079,992,0.7188689113,992,0.3445825875,992,1.201537371,992,2.539811134,
989,1.003643513,989,0.712389946,989,0.3503232598,989,1.224573851,989,2.594796658,
986,0.9904029965,986,0.6736079454,986,0.344881475,986,1.333665609,986,2.581255674,
983,0.9919028878,983,0.6653878093,983,0.3406518102,983,1.305828094,983,2.559194565,
980,0.9921826124,980,0.6790655851,980,0.3437832594,980,1.275083661,980,2.532260656,
977,1.007245421,977,0.6965882778,977,0.3328787982,977,1.250111461,977,2.460325956,
974,1.005403638,974,0.7163674831,974,0.3317563236,974,1.218220472,974,2.462233067,
971,0.9990736842,971,0.720118165,971,0.329318285,971,1.273863912,971,2.454355001,
968,0.9746639132,968,0.712529242,968,0.3225958347,968,1.230896831,968,2.502421856,
965,0.9598022103,965,0.6872835159,965,0.3235441148,965,1.247362018,965,2.48038435,
962,0.9493784904,962,0.6737900376,962,0.3131943941,962,1.257773995,962,2.464078903,
959,0.9575477839,959,0.6843909621,959,0.309212625,959,1.294466853,959,2.424073219,
956,0.966537714,956,0.7065085173,956,0.3006086648,956,1.262522101,956,2.352283239,
953,0.95843786,953,0.7244641185,953,0.2920969129,953,1.186525106,953,2.331666231,
950,0.9488562942,950,0.7171607614,950,0.2894240618,950,1.192111969,950,2.31495595,
947,0.9289108515,947,0.7171226144,947,0.28449139,947,1.214969397,947,2.346806288,
944,0.9115846157,944,0.6892353296,944,0.2772524357,944,1.24248445,944,2.321373701,
941,0.9025805593,941,0.6811651587,941,0.2711650133,941,1.212067485,941,2.304124355,
938,0.9026078582,938,0.6859576106,938,0.2645753026,938,1.211145043,938,2.264695406,
935,0.9127674699,935,0.6991717219,935,0.2566276789,935,1.234363675,935,2.196179628,
932,0.9041279554,932,0.7198521495,932,0.2475714087,932,1.184160948,932,2.166378736,
929,0.8930724859,929,0.7154402733,929,0.2453489304,929,1.15181613,929,2.147846222,
926,0.8700819612,926,0.7126247883,926,0.2369495332,926,1.157466173,926,2.156185627,
923,0.8477632999,923,0.6912415028,923,0.2297398895,923,1.182756424,923,2.131895542,
920,0.8366782069,920,0.6825223565,920,0.2250456959,920,1.179586768,920,2.098067999,
917,0.8290442824,917,0.6785236597,917,0.2163959891,917,1.1593467,917,2.062089682,
914,0.8266991973,914,0.6823498011,914,0.2095439434,914,1.158668518,914,1.99364531,
911,0.814281106,911,0.6928693652,911,0.2016354799,911,1.139699936,911,1.957015157,
908,0.7964584231,908,0.686511457,908,0.1962837279,908,1.097239256,908,1.92111969,
905,0.7750389576,905,0.6809355617,905,0.1917974055,905,1.087688327,905,1.903019667,
902,0.7497087121,902,0.6585684419,902,0.1839529574,902,1.103785992,902,1.873639464,
899,0.7348724604,899,0.6468783617,899,0.1790431738,899,1.108446479,899,1.832217932,
896,0.7220891118,896,0.6383007765,896,0.173628509,896,1.083861113,896,1.787336588,
893,0.7141233683,893,0.6375761032,893,0.1673618853,893,1.070561767,893,1.728929996,
890,0.696213305,890,0.6401605606,890,0.160269618,890,1.047126651,890,1.683932781,
887,0.6769121885,887,0.6314994693,887,0.1586105078,887,1.015958905,887,1.641501307,
884,0.65933007,884,0.6208204031,884,0.1506340355,884,0.9971438646,884,1.60139966,
881,0.6323542595,881,0.6045049429,881,0.1453689337,881,0.9919671416,881,1.561387777,
878,0.6170303822,878,0.5897652507,878,0.1410254687,878,0.983846724,878,1.512931705,
875,0.5987711549,875,0.579122901,875,0.1373739988,875,0.948769033,875,1.469500661,
872,0.5822989345,872,0.5704964995,872,0.1325778365,872,0.9274025559,872,1.412831903,
869,0.5651531219,869,0.5672330856,869,0.1260577589,869,0.899674952,869,1.365144014,
866,0.5443524122,866,0.553278923,866,0.1226547062,866,0.8689943552,866,1.318737745,
863,0.5275261402,863,0.5421823859,863,0.116578199,863,0.8475295305,863,1.281182885,
860,0.5081063509,860,0.5240177512,860,0.1130467281,860,0.8232316971,860,1.241994619,
857,0.4918387234,857,0.5067675114,857,0.1127287075,857,0.8005157113,857,1.200165987,
854,0.4726232886,854,0.4917931855,854,0.1099981368,854,0.7717419863,854,1.162774563,
851,0.4613507986,851,0.4790335,851,0.1033088192,851,0.7489587069,851,1.12342298,
848,0.4507880211,848,0.4693948328,848,0.1029189229,848,0.7286356091,848,1.092355609,
845,0.4374347627,845,0.4541919529,845,0.09835587442,845,0.7053797245,845,1.057368279,
842,0.424798429,842,0.4430409074,842,0.09586576372,842,0.6834899783,842,1.034310222,
839,0.4108272493,839,0.4285828173,839,0.09295386821,839,0.6642357707,839,1.008475423,
836,0.4018316567,836,0.417051971,836,0.09206311405,836,0.6507422328,836,0.9880488515,
833,0.3939709961,833,0.4076480865,833,0.08985841274,833,0.6383119822,833,0.9655380845,
830,0.3867734671,830,0.398920387,830,0.09039501846,830,0.6224893332,830,0.9434307814,
827,0.3783580363,827,0.3928974271,827,0.08382735401,827,0.6116756797,827,0.9229876995,
824,0.3735978007,824,0.3866955638,824,0.08372370154,824,0.5961233974,824,0.9044060707,
821,0.3691653907,821,0.3792002797,821,0.0859650299,821,0.5840051174,821,0.8925722241,
818,0.3605437875,818,0.3736081421,818,0.08421663195,818,0.5773900747,818,0.8811692595,
815,0.3549632728,815,0.3653749228,815,0.0828287974,815,0.5686770678,815,0.86804533,
812,0.3480812609,812,0.3609029651,812,0.08154225349,812,0.5641245246,812,0.8555294275,
809,0.3448014557,809,0.3543832898,809,0.08101182431,809,0.5576723218,809,0.839943707,
806,0.339484483,806,0.3515302837,806,0.07410860062,806,0.5451868176,806,0.8242759705,
803,0.3349374831,803,0.3468118012,803,0.07561802119,803,0.5352669358,803,0.8084918261,
800,0.328696996,800,0.34043625,800,0.07534829527,800,0.5248369575,800,0.7934590578,
798,0.5419770479,798,0.5541548729,798,0.1335229278,798,0.873287797,798,1.339935184,
796,0.5360445976,796,0.5477801561,796,0.1327352226,796,0.8705765009,796,1.337248564,
794,0.5497812033,794,0.5543686152,794,0.1340131611,794,0.8568351865,794,1.323341727,
792,0.5336931348,792,0.5499613285,792,0.1321890205,792,0.8725723028,792,1.356427193,
790,0.5398494601,790,0.5421357751,790,0.1342433691,790,0.8626177907,790,1.316230893,
788,0.5462287664,788,0.5588595867,788,0.1312686205,788,0.8811622858,788,1.335764885,
786,0.5352848768,786,0.5477287173,786,0.1334308088,786,0.8557370901,786,1.339482069,
784,0.5447016358,784,0.547514081,784,0.1341325492,784,0.8551914096,784,1.326159716,
782,0.5358163714,782,0.5497044921,782,0.1314637661,782,0.8686572313,782,1.34223175,
780,0.5454720855,780,0.5483216643,780,0.1341119707,780,0.8637711406,780,1.316340685,
778,0.5355194807,778,0.550750196,778,0.1315879971,778,0.8757390976,778,1.355056882,
776,0.5389472842,776,0.5409671664,776,0.1355098188,776,0.8426586986,776,1.315045834,
774,0.5405535102,774,0.5562829971,774,0.1311242878,774,0.8616237044,774,1.342594981,
772,0.5405880213,772,0.546269536,772,0.135251388,772,0.8605546951,772,1.323153377,
770,0.5359182358,770,0.5501781106,770,0.1312240511,770,0.8661233187,770,1.349389791,
768,0.5378448963,768,0.5412873626,768,0.1346448362,768,0.8413209319,768,1.316129088,
766,0.5395866632,766,0.5563879609,766,0.1305294037,766,0.8681878448,766,1.344508529,
764,0.533282578,764,0.5404551625,764,0.1353587657,764,0.8580898046,764,1.323759317,
762,0.5359576344,762,0.546977222,762,0.1312263906,762,0.8637474179,762,1.33926487,
760,0.5379132032,760,0.5433630943,760,0.1342584193,760,0.8292959332,760,1.310682535,
758,0.5388672948,758,0.5526083708,758,0.1316912174,758,0.8605195284,758,1.347000241,
756,0.5339107513,756,0.5391990542,756,0.136376366,756,0.8597074747,756,1.320476174,
754,0.5336300135,754,0.546657145,754,0.1307945698,754,0.8528655171,754,1.340004921,
752,0.5400342941,752,0.5464634895,752,0.1340780705,752,0.8300953507,752,1.315632224,
750,0.5308030844,750,0.5444639325,750,0.133213833,750,0.8559155464,750,1.343582153,
748,0.5345113277,748,0.5415444374,748,0.132153511,748,0.8518421054,748,1.323130727,
746,0.5326654315,746,0.5431604385,746,0.1333922297,746,0.8254580498,746,1.319155693,
744,0.53595227,744,0.5488440394,744,0.1318322122,744,0.8426579833,744,1.341409802,
742,0.5315672159,742,0.5370157957,742,0.1353858113,742,0.8486944437,742,1.316560745,
740,0.5309236646,740,0.5404719114,740,0.1304445416,740,0.839674294,740,1.331967235,
738,0.537199676,738,0.5458095074,738,0.1329190135,738,0.8211830854,738,1.317798495,
736,0.5288664103,736,0.5414064527,736,0.1342586577,736,0.8344563842,736,1.326739311,
734,0.5292536616,734,0.539527297,734,0.1316043437,734,0.8484942913,734,1.334879041,
732,0.5337325335,732,0.5428167582,732,0.1332404763,732,0.8256249428,732,1.310239911,
730,0.5311365724,730,0.5414957404,730,0.133268401,730,0.8250015974,730,1.328014255,
728,0.5267454982,728,0.5378930569,728,0.130667448,728,0.8463611007,728,1.335511088,
726,0.5298794508,726,0.5360974669,726,0.1324603856,726,0.8227564096,726,1.307904959,
724,0.5305321217,724,0.5398954749,724,0.1329321116,724,0.813814342,724,1.315067291,
722,0.5284934044,722,0.5412535071,722,0.1310933083,722,0.8375108242,722,1.330029011,
720,0.5272400975,720,0.5348871946,720,0.1325062662,720,0.8244757652,720,1.311172009,
718,0.5303753018,718,0.5389568806,718,0.1330404282,718,0.8097685575,718,1.303322315,
716,0.529584825,716,0.5409228802,716,0.1313791424,716,0.8198673725,716,1.323679686,
714,0.5258277655,714,0.5350177884,714,0.130974561,714,0.8222248554,714,1.319985986,
712,0.5254973769,712,0.5342736244,712,0.1323845983,712,0.8047630787,712,1.298839569,
710,0.5290876627,710,0.5398647785,710,0.1323511153,710,0.8069630861,710,1.305617094,
708,0.5268505216,708,0.5380535722,708,0.1311381608,708,0.8094371557,708,1.318647027,
706,0.5240841508,706,0.5317561626,706,0.1306743771,706,0.7988014221,706,1.313784361,
704,0.5271969438,704,0.535895586,704,0.1304739863,704,0.7952979803,704,1.296595693,
702,0.5278964639,702,0.5374455452,702,0.1308539957,702,0.7938733101,702,1.302847862,
700,0.5237294436,700,0.5329085588,700,0.1289791614,700,0.7914415598,700,1.310109973,
698,0.523135066,698,0.5312719345,698,0.1269831061,698,0.7918917537,698,1.302794456,
696,0.5264089704,696,0.5369198322,696,0.1263058037,696,0.7909897566,696,1.299983144,
694,0.5252736807,694,0.5367071629,694,0.1280577332,694,0.7744566798,694,1.30518353,
692,0.5216661096,692,0.5297761559,692,0.1283794791,692,0.7808075547,692,1.301494479,
690,0.5249978304,690,0.5308249593,690,0.1265293658,690,0.7865302563,690,1.293514609,
688,0.5262430906,688,0.5316451788,688,0.1263833046,688,0.7695426941,688,1.300019026,
686,0.5217495561,686,0.5273365974,686,0.1273864955,686,0.7722740769,686,1.302353263,
684,0.5206313729,684,0.5246055722,684,0.1261863261,684,0.7815361023,684,1.292554379,
682,0.5249119997,682,0.5300096273,682,0.125730142,682,0.7636168599,682,1.289707184,
680,0.5241397023,680,0.5304433703,680,0.1268198788,680,0.7601151466,680,1.296688199,
678,0.5196419358,678,0.5252072811,678,0.1269441843,678,0.7708637118,678,1.294751525,
676,0.5219650269,676,0.5255453587,676,0.1252127886,676,0.7596715093,676,1.283201218,
674,0.522754848,674,0.5299218297,674,0.1254279613,674,0.7519663572,674,1.286909938,
672,0.519507587,672,0.5265651941,672,0.1261516213,672,0.7648768425,672,1.291493177,
670,0.5174379945,670,0.5222136974,670,0.1259080321,670,0.7536858916,670,1.281081319,
668,0.5206068754,668,0.5263701677,668,0.1244538352,668,0.7485879064,668,1.276331902,
666,0.5208163261,666,0.5262644887,666,0.1252143234,666,0.7486296892,666,1.28387785,
664,0.5162928104,664,0.5195962787,664,0.1253911406,664,0.7498822808,664,1.282168031,
662,0.5177725554,662,0.5204096437,662,0.1240993589,662,0.7514056563,662,1.270712852,
660,0.5190566778,660,0.5242323875,660,0.1234706119,660,0.7388680577,660,1.272639751,
658,0.5152961016,658,0.5210977197,658,0.1245622039,658,0.7385907769,658,1.276236057,
656,0.5128147006,656,0.5163010955,656,0.1238886416,656,0.7453007698,656,1.268038869,
654,0.5162997842,654,0.521210134,654,0.1225658208,654,0.7328095436,654,1.261974216,
652,0.5154123306,652,0.5206973553,652,0.1231514513,652,0.7291983962,652,1.269358635,
650,0.5107015371,650,0.5127339959,650,0.1233892366,650,0.7355985641,650,1.266160369,
648,0.511354208,648,0.5135976076,648,0.1224866509,648,0.7285563946,648,1.254871726,
646,0.513066113,646,0.5191397667,646,0.1224110574,646,0.7271716595,646,1.254296064,
644,0.5096375346,644,0.5175061226,644,0.1227795258,644,0.7247575521,644,1.261721611,
642,0.5076624751,642,0.5118471384,642,0.122548081,642,0.7284065485,642,1.256351233,
640,0.5133384466,640,0.5176420808,640,0.1218336374,640,0.7314966321,640,1.254293561,
638,0.5154366493,638,0.5204298496,638,0.1225299984,638,0.7249573469,638,1.264348149,
636,0.5128769279,636,0.5175742507,636,0.1229602396,636,0.7388477921,636,1.268072724,
634,0.5147921443,634,0.5210437775,634,0.1225714236,634,0.740552485,634,1.263754249,
632,0.5198389292,632,0.5286861062,632,0.1231404617,632,0.7383149862,632,1.27227366,
630,0.5220048428,630,0.5301014781,630,0.1249351501,630,0.7531660795,630,1.287387133,
628,0.5242564678,628,0.527867198,628,0.1256585866,628,0.7543991208,628,1.29121995,
626,0.5307164192,626,0.5368949175,626,0.1250075102,626,0.7631654143,626,1.289612055,
624,0.531940043,624,0.5400323272,624,0.1265844703,624,0.7615301013,624,1.302256107,
622,0.5309928656,622,0.5358449817,622,0.1279023737,622,0.7734803557,622,1.310160518,
620,0.5328950286,620,0.5371105075,620,0.1265140176,620,0.7816489935,620,1.303737402,
618,0.5336335301,618,0.5434602499,618,0.126875639,618,0.7667444944,618,1.301866531,
616,0.5322801471,616,0.5400061011,616,0.1280944794,616,0.7812474966,616,1.309467196,
614,0.527933538,614,0.5317531824,614,0.12703152,614,0.7791213989,614,1.304257512,
612,0.5266512036,612,0.5318394303,612,0.1262161434,612,0.7780236006,612,1.289726496,
610,0.5256155729,610,0.529022634,610,0.1264255196,610,0.7677790523,610,1.292136431,
608,0.5186806917,608,0.5226832628,608,0.1255823672,608,0.7743400931,608,1.286866665,
606,0.5135864615,606,0.516484797,606,0.1259013712,606,0.7704979777,606,1.269727111,
604,0.5164051652,604,0.5183359385,604,0.1235064939,604,0.7590618134,604,1.266011238,
602,0.5111427307,602,0.5178620219,602,0.1248092949,602,0.7638151646,602,1.267766356,
600,0.5071332455,600,0.5086856484,600,0.1235734522,600,0.7665240169,600,1.267439365,
598,0.5081766844,598,0.5135712028,598,0.1229781285,598,0.7757803798,598,1.255744219,
596,0.5118510127,596,0.5179920197,596,0.1226409376,596,0.7653352022,596,1.269836903,
594,0.5103046298,594,0.5192012191,594,0.1244625449,594,0.7937055826,594,1.278530121,
592,0.5151732564,592,0.5214344859,592,0.1238731816,592,0.7944527864,592,1.286684036,
590,0.5225788355,590,0.5337046981,590,0.1250919551,590,0.8081339598,590,1.291689157,
588,0.5282126069,588,0.538318634,588,0.1251781285,588,0.8085689545,588,1.312090158,
586,0.5266601443,586,0.5367552638,586,0.1270913482,586,0.8317328095,586,1.314775109,
584,0.5297224522,584,0.5395001173,584,0.1252674907,584,0.8240655065,584,1.310868979,
582,0.5302266479,582,0.5430771112,582,0.1256404817,582,0.8308001757,582,1.31253159,
580,0.524875164,580,0.538783133,580,0.1263064146,580,0.819121182,580,1.308679342,
578,0.5217042565,578,0.532384634,578,0.124605909,578,0.8307608962,578,1.30022192,
576,0.5218389034,576,0.5348345041,576,0.1238300726,576,0.8077424169,576,1.290733695,
574,0.5191583633,574,0.5312428474,574,0.1244767308,574,0.8128406405,574,1.29103148,
572,0.5133627653,572,0.5217892528,572,0.1235242486,572,0.802568078,572,1.287067771,
570,0.5131418109,570,0.5199158788,570,0.1218177229,570,0.8089287877,570,1.275565267,
568,0.5137702823,568,0.1214699447,568,0.1239507124,568,0.7994225025,568,1.280247569,
566,0.5173655152,566,0.1222371459,566,0.1231115535,566,0.797978878,566,1.274089456,
564,0.5164811611,564,0.1221375763,564,0.1233843043,564,0.785697341,564,1.281020641,
562,0.5117009282,562,0.121265769,562,0.1235707179,562,0.7955331206,562,1.280780196,
560,0.5136853456,560,0.1215245798,560,0.1224342138,560,0.7889633775,560,1.272418141,
558,0.5152156353,558,0.1148299798,558,0.1219387054,558,0.7804973722,558,1.273599863,
556,0.5124781132,556,0.5184437037,556,0.1227805838,556,0.784869194,556,1.278479457,
554,0.5112900138,554,0.5123860836,554,0.1226695478,554,0.7793854475,554,1.274539948,
552,0.5143021345,552,0.5112771392,552,0.1218657345,552,0.7889219522,552,1.269107461,
550,0.5146900415,550,0.5125864148,550,0.1216730475,550,0.7725743651,550,1.277198553,
548,0.5111976266,548,0.5053341389,548,0.1223335415,548,0.7837464809,548,1.27673471,
546,0.5120212436,546,0.5029637218,546,0.1218450144,546,0.7837619781,546,1.26905632,
544,0.5125845671,544,0.5052217841,544,0.1208905727,544,0.7652130127,544,1.264400363,
542,0.5117268562,542,0.504665792,542,0.1224537268,542,0.7704637051,542,1.273459077,
540,0.5099090934,540,0.4994663,540,0.1221019924,540,0.7706205845,540,1.272794008,
538,0.5131590962,538,0.5031929016,538,0.1211378053,538,0.7726653218,538,1.266947031,
536,0.5138248801,536,0.5078955293,536,0.1212222055,536,0.7651340961,536,1.273438692,
534,0.5093456507,534,0.5036243796,534,0.1216167137,534,0.7675660253,534,1.274462938,
532,0.5103462338,532,0.5009393692,532,0.1215947419,532,0.7722691298,532,1.265249729,
530,0.5129008293,530,0.5083779097,530,0.1208921745,530,0.7613343,530,1.265487075,
528,0.5112648606,528,0.5074484348,528,0.1217890307,528,0.7596521974,528,1.274372339,
526,0.5080503821,526,0.5010408163,526,0.1218411922,526,0.7727087736,526,1.272833228,
524,0.5111622214,524,0.5011419058,524,0.1211312115,524,0.7666197419,524,1.262279749,
522,0.5113373399,522,0.5049777031,522,0.1211523786,522,0.7610968351,522,1.269321203,
520,0.5063687563,520,0.5018450022,520,0.1219866201,520,0.7690599561,520,1.272899508,
518,0.5057054758,518,0.4983074069,518,0.1219445691,518,0.7676499486,518,1.262855768,
516,0.5088423491,516,0.5037823915,516,0.1207079291,516,0.7665784955,516,1.260782838,
514,0.5069689751,514,0.5036358833,514,0.1217372268,514,0.7661701441,514,1.271100521,
512,0.5031293631,512,0.4964837432,512,0.1216380522,512,0.7727453709,512,1.268105268,
510,0.5056393147,510,0.4977882802,510,0.1210666522,510,0.7669584155,510,1.259592295,
508,0.5055987239,508,0.5024873614,508,0.1210544482,508,0.7655845881,508,1.263236523,
506,0.5019945502,506,0.4993485212,506,0.1219922081,506,0.7642990351,506,1.264851332,
504,0.5011734962,504,0.4941110909,504,0.1217431054,504,0.7654060125,504,1.256091833,
502,0.5042752028,502,0.4982390106,502,0.1213938147,502,0.7626383901,502,1.255755186,
500,0.5043863058,500,0.4992153049,500,0.1211930513,500,0.7640103102,500,1.261114001,
498,0.4996368289,498,0.4923944771,498,0.1222517714,498,0.7715624571,498,1.262227297,
496,0.5017575622,496,0.4938874841,496,0.1211676523,496,0.7689538598,496,1.252363443,
494,0.5028761029,494,0.4998791516,494,0.1205771714,494,0.764577806,494,1.255803704,
492,0.4999120235,492,0.4991018176,492,0.1216273606,492,0.7635590434,492,1.259247899,
490,0.4990131259,490,0.4934779704,490,0.1218330935,490,0.7685219646,490,1.251185656,
488,0.5030322075,488,0.496973753,488,0.1205982864,488,0.7583291531,488,1.246412754,
486,0.5026469231,486,0.4992686808,486,0.1212152764,486,0.7476699948,486,1.253371,
484,0.4992102683,484,0.4920276701,484,0.1212603971,484,0.7464731336,484,1.252435923,
482,0.5007458329,482,0.492163986,482,0.120748803,482,0.7394968867,482,1.242843151,
480,0.502333343,480,0.4982832372,480,0.120197624,480,0.7237064838,480,1.244327664,
478,0.5003891587,478,0.4988206923,478,0.1206099316,478,0.7163951397,478,1.24956727,
476,0.4992742538,476,0.4932857156,476,0.1201751158,476,0.7137867808,476,1.243727088,
474,0.5024493933,474,0.4977468848,474,0.1190675646,474,0.7040019631,474,1.239539146,
472,0.5029513836,472,0.5005818605,472,0.119453229,472,0.6942731738,472,1.24465239,
470,0.4988584518,470,0.493612051,470,0.1196349636,470,0.6946451068,470,1.244583488,
468,0.5006889701,468,0.4916566312,468,0.1193403751,468,0.6907545924,468,1.235237956,
466,0.5030812621,466,0.4974423945,466,0.1189948022,466,0.6794666648,466,1.234729409,
464,0.5011795163,464,0.4972633123,464,0.119553946,464,0.6760962605,464,1.240444064,
462,0.498483479,462,0.4899704456,462,0.1193894297,462,0.678036809,462,1.23700726,
460,0.5008050799,460,0.4930174947,460,0.118130751,460,0.6749984622,460,1.229416251,
458,0.5004688501,458,0.4959603846,458,0.1183705181,458,0.6690394878,458,1.23614943,
456,0.4965451658,456,0.4914441109,456,0.1186279431,456,0.6716834903,456,1.237017155,
454,0.4962314963,454,0.4884337187,454,0.1181051284,454,0.6709222198,454,1.22725451,
452,0.4989196062,452,0.4946136475,452,0.1179922,452,0.6630523801,452,1.225366473,
450,0.496688664,450,0.4926642478,450,0.1183657944,450,0.6598885059,450,1.230721474,

FePS3,
FePS3
Collection Time: 16/11/2023 1:54:06 PM
Operator Name  :
Scan Software Version: 4.10(464)
Parameter List :
Instrument                        Cary 5000
Instrument Version                1.12
Start (nm)                        1400.00
Stop (nm)                         450.00
X Mode                            Nanometers
Y Mode                            %T
Independent NIR                   On
Measurement Mode                  Auto
UV-Vis Data Interval (nm)         2.00
UV-Vis Ave. Time (sec)            0.100
UV-Vis SBW (nm)                   2.000
NIR Scan Rate (nm/min)            1800.000
NIR Data Interval (nm)            3.00
NIR Ave. Time (sec)               0.100
NIR Energy                        3.00
Slit Height                       Full
Beam Mode                         Double
Signal-to-noise Mode              Off
UV Source                         Off
Vis Source                        On
Third Source                      Off
Source Changeover (nm)            350.00
Detector Changeover (nm)          800.00
Grating Changeover (nm)           800.00
Baseline Correction               Off
Cycle Mode                        Off
Comments
Method Log     :
Method Name    :
Date/Time stamp: 16/11/2023 1:40:42 PM
Method Modifications:
X Start nm Changed: 16/11/2023 1:51:39 PM, Old: 800.00, New:1400.00
X Stop nm Changed: 16/11/2023 1:51:39 PM, Old: 200.00, New: 400.00
Y mode Changed: 16/11/2023 1:51:39 PM, Old:Abs, New:%T
X Stop nm Changed: 16/11/2023 1:52:54 PM, Old: 400.00, New: 450.00
Idpt Control Changed: 16/11/2023 1:52:54 PM, Old:0, New:1
UVVIS Interval nm Changed: 16/11/2023 1:52:54 PM, Old:     1.00, New:     2.00
NIR Scan Rate nm Changed: 16/11/2023 1:52:54 PM, Old:  600.000, New: 1800.000
NIR Interval nm Changed: 16/11/2023 1:52:54 PM, Old:     1.00, New:     3.00
End Method Modifications
<SBW (nm)> , 2.00
<Energy> , 3.00
<Slit height> , Full
<Current Wavelength> , 800.00
<SBW (nm)> , 2.00
<Energy> , 13.18
<Slit height> , Full
<Current Wavelength> , 450.00

NiPS3,
NiPS3
Collection Time: 16/11/2023 1:57:14 PM
Operator Name  :
Scan Software Version: 4.10(464)
Parameter List :
Instrument                        Cary 5000
Instrument Version                1.12
Start (nm)                        1400.00
Stop (nm)                         450.00
X Mode                            Nanometers
Y Mode                            %T
Independent NIR                   On
Measurement Mode                  Auto
UV-Vis Data Interval (nm)         2.00
UV-Vis Ave. Time (sec)            0.100
UV-Vis SBW (nm)                   2.000
NIR Scan Rate (nm/min)            1800.000
NIR Data Interval (nm)            3.00
NIR Ave. Time (sec)               0.100
NIR Energy                        3.00
Slit Height                       Full
Beam Mode                         Double
Signal-to-noise Mode              Off
UV Source                         Off
Vis Source                        On
Third Source                      Off
Source Changeover (nm)            350.00
Detector Changeover (nm)          800.00
Grating Changeover (nm)           800.00
Baseline Correction               Off
Cycle Mode                        Off
Comments
Method Log     :
Method Name    :
Date/Time stamp: 16/11/2023 1:40:42 PM
Method Modifications:
X Start nm Changed: 16/11/2023 1:51:39 PM, Old: 800.00, New:1400.00
X Stop nm Changed: 16/11/2023 1:51:39 PM, Old: 200.00, New: 400.00
Y mode Changed: 16/11/2023 1:51:39 PM, Old:Abs, New:%T
X Stop nm Changed: 16/11/2023 1:52:54 PM, Old: 400.00, New: 450.00
Idpt Control Changed: 16/11/2023 1:52:54 PM, Old:0, New:1
UVVIS Interval nm Changed: 16/11/2023 1:52:54 PM, Old:     1.00, New:     2.00
NIR Scan Rate nm Changed: 16/11/2023 1:52:54 PM, Old:  600.000, New: 1800.000
NIR Interval nm Changed: 16/11/2023 1:52:54 PM, Old:     1.00, New:     3.00
End Method Modifications
<SBW (nm)> , 2.00
<Energy> , 3.00
<Slit height> , Full
<Current Wavelength> , 800.00
<SBW (nm)> , 2.00
<Energy> , 13.18
<Slit height> , Full
<Current Wavelength> , 450.00

CrPS4,
CrPS4
Collection Time: 16/11/2023 1:59:44 PM
Operator Name  :
Scan Software Version: 4.10(464)
Parameter List :
Instrument                        Cary 5000
Instrument Version                1.12
Start (nm)                        1400.00
Stop (nm)                         450.00
X Mode                            Nanometers
Y Mode                            %T
Independent NIR                   On
Measurement Mode                  Auto
UV-Vis Data Interval (nm)         2.00
UV-Vis Ave. Time (sec)            0.100
UV-Vis SBW (nm)                   2.000
NIR Scan Rate (nm/min)            1800.000
NIR Data Interval (nm)            3.00
NIR Ave. Time (sec)               0.100
NIR Energy                        3.00
Slit Height                       Full
Beam Mode                         Double
Signal-to-noise Mode              Off
UV Source                         Off
Vis Source                        On
Third Source                      Off
Source Changeover (nm)            350.00
Detector Changeover (nm)          800.00
Grating Changeover (nm)           800.00
Baseline Correction               Off
Cycle Mode                        Off
Comments
Method Log     :
Method Name    :
Date/Time stamp: 16/11/2023 1:40:42 PM
Method Modifications:
X Start nm Changed: 16/11/2023 1:51:39 PM, Old: 800.00, New:1400.00
X Stop nm Changed: 16/11/2023 1:51:39 PM, Old: 200.00, New: 400.00
Y mode Changed: 16/11/2023 1:51:39 PM, Old:Abs, New:%T
X Stop nm Changed: 16/11/2023 1:52:54 PM, Old: 400.00, New: 450.00
Idpt Control Changed: 16/11/2023 1:52:54 PM, Old:0, New:1
UVVIS Interval nm Changed: 16/11/2023 1:52:54 PM, Old:     1.00, New:     2.00
NIR Scan Rate nm Changed: 16/11/2023 1:52:54 PM, Old:  600.000, New: 1800.000
NIR Interval nm Changed: 16/11/2023 1:52:54 PM, Old:     1.00, New:     3.00
End Method Modifications
<SBW (nm)> , 2.00
<Energy> , 3.00
<Slit height> , Full
<Current Wavelength> , 800.00
<SBW (nm)> , 2.00
<Energy> , 13.18
<Slit height> , Full
<Current Wavelength> , 450.00

MnPS3,
MnPS3
Collection Time: 16/11/2023 2:02:14 PM
Operator Name  :
Scan Software Version: 4.10(464)
Parameter List :
Instrument                        Cary 5000
Instrument Version                1.12
Start (nm)                        1400.00
Stop (nm)                         450.00
X Mode                            Nanometers
Y Mode                            %T
Independent NIR                   On
Measurement Mode                  Auto
UV-Vis Data Interval (nm)         2.00
UV-Vis Ave. Time (sec)            0.100
UV-Vis SBW (nm)                   2.000
NIR Scan Rate (nm/min)            1800.000
NIR Data Interval (nm)            3.00
NIR Ave. Time (sec)               0.100
NIR Energy                        3.00
Slit Height                       Full
Beam Mode                         Double
Signal-to-noise Mode              Off
UV Source                         Off
Vis Source                        On
Third Source                      Off
Source Changeover (nm)            350.00
Detector Changeover (nm)          800.00
Grating Changeover (nm)           800.00
Baseline Correction               Off
Cycle Mode                        Off
Comments
Method Log     :
Method Name    :
Date/Time stamp: 16/11/2023 1:40:42 PM
Method Modifications:
X Start nm Changed: 16/11/2023 1:51:39 PM, Old: 800.00, New:1400.00
X Stop nm Changed: 16/11/2023 1:51:39 PM, Old: 200.00, New: 400.00
Y mode Changed: 16/11/2023 1:51:39 PM, Old:Abs, New:%T
X Stop nm Changed: 16/11/2023 1:52:54 PM, Old: 400.00, New: 450.00
Idpt Control Changed: 16/11/2023 1:52:54 PM, Old:0, New:1
UVVIS Interval nm Changed: 16/11/2023 1:52:54 PM, Old:     1.00, New:     2.00
NIR Scan Rate nm Changed: 16/11/2023 1:52:54 PM, Old:  600.000, New: 1800.000
NIR Interval nm Changed: 16/11/2023 1:52:54 PM, Old:     1.00, New:     3.00
End Method Modifications
<SBW (nm)> , 2.00
<Energy> , 3.00
<Slit height> , Full
<Current Wavelength> , 800.00
<SBW (nm)> , 2.00
<Energy> , 13.18
<Slit height> , Full
<Current Wavelength> , 450.00

Hole,
Hole
Collection Time: 16/11/2023 2:04:39 PM
Operator Name  :
Scan Software Version: 4.10(464)
Parameter List :
Instrument                        Cary 5000
Instrument Version                1.12
Start (nm)                        1400.00
Stop (nm)                         450.00
X Mode                            Nanometers
Y Mode                            %T
Independent NIR                   On
Measurement Mode                  Auto
UV-Vis Data Interval (nm)         2.00
UV-Vis Ave. Time (sec)            0.100
UV-Vis SBW (nm)                   2.000
NIR Scan Rate (nm/min)            1800.000
NIR Data Interval (nm)            3.00
NIR Ave. Time (sec)               0.100
NIR Energy                        3.00
Slit Height                       Full
Beam Mode                         Double
Signal-to-noise Mode              Off
UV Source                         Off
Vis Source                        On
Third Source                      Off
Source Changeover (nm)            350.00
Detector Changeover (nm)          800.00
Grating Changeover (nm)           800.00
Baseline Correction               Off
Cycle Mode                        Off
Comments
Method Log     :
Method Name    :
Date/Time stamp: 16/11/2023 1:40:42 PM
Method Modifications:
X Start nm Changed: 16/11/2023 1:51:39 PM, Old: 800.00, New:1400.00
X Stop nm Changed: 16/11/2023 1:51:39 PM, Old: 200.00, New: 400.00
Y mode Changed: 16/11/2023 1:51:39 PM, Old:Abs, New:%T
X Stop nm Changed: 16/11/2023 1:52:54 PM, Old: 400.00, New: 450.00
Idpt Control Changed: 16/11/2023 1:52:54 PM, Old:0, New:1
UVVIS Interval nm Changed: 16/11/2023 1:52:54 PM, Old:     1.00, New:     2.00
NIR Scan Rate nm Changed: 16/11/2023 1:52:54 PM, Old:  600.000, New: 1800.000
NIR Interval nm Changed: 16/11/2023 1:52:54 PM, Old:     1.00, New:     3.00
End Method Modifications
<SBW (nm)> , 2.00
<Energy> , 3.00
<Slit height> , Full
<Current Wavelength> , 800.00
<SBW (nm)> , 2.00
<Energy> , 13.18
<Slit height> , Full
<Current Wavelength> , 450.00

