Baseline 100%T,,FePS3,,NiPS3,,CrPS4,,MnPS3,,Hole,,
Wavelength (nm),%T,Wavelength (nm),%T,Wavelength (nm),%T,Wavelength (nm),%T,Wavelength (nm),%T,Wavelength (nm),%T,
1600,2.673387051,1600,9.844389915,1600,15.04737473,1600,13.83478642,1600,29.30798912,1600,102.9040833,
1597,2.458178282,1597,9.419538498,1597,15.83216381,1597,15.97131824,1597,29.81930923,1597,99.28625488,
1594,2.717524767,1594,9.746692657,1594,15.31894016,1594,13.6903286,1594,29.15998459,1594,98.85781097,
1591,2.513852119,1591,10.57393265,1591,15.49279881,1591,16.03291702,1591,30.78357887,1591,99.56213379,
1588,2.675028086,1588,9.618721008,1588,14.78873348,1588,13.80787659,1588,31.81411934,1588,102.1212082,
1585,2.486186266,1585,11.1391592,1585,14.84786415,1585,16.57914734,1585,32.50971603,1585,104.6999359,
1582,2.576642752,1582,9.152280807,1582,14.45607376,1582,14.29864311,1582,32.91191101,1582,104.4925232,
1579,2.543386698,1579,9.949300766,1579,14.88878918,1579,16.17566681,1579,30.40766716,1579,103.2788239,
1576,2.577109814,1576,8.934707642,1576,14.81463051,1576,14.0691328,1576,29.59133911,1576,99.74724579,
1573,2.679737329,1573,9.573069572,1573,14.95807743,1573,15.2713995,1573,26.78503036,1573,98.45540619,
1570,2.547555685,1570,9.604756355,1570,14.47243881,1570,14.47410011,1570,29.80280876,1570,99.57321167,
1567,2.739197016,1567,9.996283531,1567,14.49194813,1567,15.22845936,1567,27.40331841,1567,101.8197632,
1564,2.439201832,1564,9.48686409,1564,13.74479961,1564,15.62089157,1564,31.67424774,1564,104.183754,
1561,2.715442657,1561,9.830396652,1561,13.99072838,1561,15.07038212,1561,28.16905594,1561,104.5985489,
1558,2.406170607,1558,8.589896202,1558,14.07092953,1558,15.96885872,1558,32.2405777,1558,103.4066925,
1555,2.784097195,1555,8.984457016,1555,14.35416985,1555,14.20135784,1555,26.09409142,1555,99.89603424,
1552,2.484931707,1552,8.640791893,1552,14.26044273,1552,16.09689713,1552,29.56441879,1552,98.34018707,
1549,2.798481226,1549,8.884943008,1549,13.85929298,1549,13.87977028,1549,27.70475769,1549,99.16860962,
1546,2.534372807,1546,9.245524406,1546,13.88943005,1546,16.52924347,1546,30.57546997,1546,101.6598816,
1543,2.656181574,1543,8.766737938,1543,13.23657799,1543,14.37103176,1543,29.0618,1543,104.058075,
1540,2.565897226,1540,9.346839905,1540,13.53053474,1540,16.74726677,1540,28.53701401,1540,105.0227509,
1537,2.533699512,1537,8.05179882,1537,13.35971165,1537,14.94275951,1537,28.84166527,1537,103.5210571,
1534,2.733021498,1534,8.581589699,1534,13.96874046,1534,15.40550041,1534,23.3646946,1534,100.1304169,
1531,2.513328075,1531,7.791659832,1531,13.48318005,1531,15.23313999,1531,25.87558556,1531,98.33586884,
1528,2.844833136,1528,8.917486191,1528,13.39848804,1528,14.49102306,1528,23.99944115,1528,98.8551712,
1525,2.490406036,1525,8.549808502,1525,13.47872448,1525,16.61733055,1525,30.05924797,1525,101.5499268,
1522,2.748757839,1522,9.367856026,1522,12.67359257,1522,14.51082993,1522,28.39153481,1522,103.8741226,
1519,2.505344629,1519,8.21878624,1519,13.0034523,1519,17.24489594,1519,31.4235363,1519,105.268631,
1516,2.593341351,1516,8.630760193,1516,12.83865547,1516,14.79540443,1516,30.12728119,1516,103.9978943,
1513,2.706494093,1513,7.425926685,1513,13.31862545,1513,15.84257221,1513,24.86496544,1513,100.1897659,
1510,2.539536715,1510,7.79557085,1510,13.11853981,1510,15.22240639,1510,25.80225754,1510,98.46421814,
1507,2.85863328,1507,8.145809174,1507,12.93813133,1507,14.84241962,1507,23.2019558,1507,98.69927979,
1504,2.507644892,1504,8.155581474,1504,12.89356613,1504,16.76093483,1504,27.419487,1504,101.2808456,
1501,2.752953529,1501,8.474651337,1501,12.24805927,1501,14.4978199,1501,24.94983864,1501,103.8321228,
1498,2.561295033,1498,7.649875641,1498,12.43999004,1498,17.25112152,1498,26.85533524,1498,105.4133453,
1495,2.553297997,1495,8.111335754,1495,12.41048527,1495,15.2875576,1495,27.53092003,1495,104.1909943,
1492,2.771417618,1492,6.68880558,1492,12.79121494,1492,15.73370838,1492,23.63690948,1492,100.6904984,
1489,2.520999193,1489,7.95133543,1489,12.80017471,1489,15.99700451,1489,27.04815483,1489,98.1971283,
1486,2.847892284,1486,7.063922405,1486,12.48895264,1486,14.31627083,1486,24.54231262,1486,98.80836487,
1483,2.599375486,1483,8.443472862,1483,12.51552677,1483,17.07519531,1483,27.019804,1483,101.1190262,
1480,2.642684698,1480,7.24310112,1480,12.03017235,1480,15.10922146,1480,26.53941154,1480,103.5557251,
1477,2.702042818,1477,8.504678726,1477,12.0946064,1477,16.68732071,1477,25.51654243,1477,105.4373398,
1474,2.452375889,1474,6.604063511,1474,12.23072147,1474,16.56105995,1474,27.09529495,1474,104.6424179,
1471,2.80809164,1471,7.660476208,1471,12.24777508,1471,14.96354771,1471,21.65991592,1471,101.1020432,
1468,2.588461399,1468,6.129030228,1468,12.41821384,1468,16.8943615,1468,24.10760117,1468,98.16778564,
1465,2.69509387,1465,8.018960953,1465,12.28974533,1465,14.54326057,1465,24.03124428,1465,98.75521851,
1462,2.804954052,1462,7.071156979,1462,12.12676716,1462,16.10761642,1462,24.34530067,1462,101.1402588,
1459,2.483518839,1459,7.963309288,1459,11.81339169,1459,16.92907333,1459,30.19408798,1459,103.719162,
1456,2.741173029,1456,7.709055424,1456,11.73276329,1456,15.42813587,1456,26.95342255,1456,105.3969879,
1453,2.593138933,1453,6.388575554,1453,11.64041901,1453,17.57509232,1453,26.38267899,1453,105.2334518,
1450,2.529756069,1450,7.150368214,1450,11.99629498,1450,15.56947708,1450,24.74623108,1450,101.4127045,
1447,2.877881527,1447,5.971663475,1447,11.88987541,1447,15.13823891,1447,20.72217178,1447,98.61631775,
1444,2.573393345,1444,7.190341473,1444,12.06602287,1444,16.99248314,1444,22.49052429,1444,98.68818665,
1441,2.68955183,1441,7.033074856,1441,12.10526276,1441,14.95376492,1441,22.99785233,1441,100.8469849,
1438,2.789917946,1438,7.0818367,1438,11.3673296,1438,16.33757591,1438,24.03022575,1438,103.4851913,
1435,2.44577527,1435,7.337650776,1435,11.56595421,1435,17.47448921,1435,27.02398682,1435,105.7466354,
1432,2.703688383,1432,6.624976635,1432,11.21422005,1432,15.33441067,1432,24.53126907,1432,104.8654404,
1429,2.674056292,1429,6.262144566,1429,11.48651505,1429,16.97379875,1429,25.1185627,1429,102.024353,
1426,2.531736135,1426,6.201629639,1426,12.02954292,1426,15.96743488,1426,25.35793114,1426,98.88410187,
1423,2.829963923,1423,6.286112309,1423,11.64560986,1423,14.87637711,1423,22.0140419,1423,98.81393433,
1420,2.683099985,1420,6.547973156,1420,11.85191154,1420,17.02265167,1420,24.63952827,1420,100.4795227,
1417,2.530329227,1417,6.756659031,1417,11.39242935,1417,16.13052368,1417,24.78014374,1417,103.3244629,
1414,2.737793922,1414,6.748139858,1414,11.02009964,1414,15.78119564,1414,22.61796951,1414,105.5938721,
1411,2.547466278,1411,5.885721207,1411,11.16827393,1411,17.60811043,1411,24.90981102,1411,105.1878967,
1408,2.506529093,1408,6.231560707,1408,11.90779972,1408,15.72344303,1408,24.02135086,1408,102.3368454,
1405,2.820514917,1405,5.476362705,1405,11.96446991,1405,15.08660126,1405,21.68071938,1405,98.95478058,
1402,2.654021978,1402,6.124137878,1402,12.0237627,1402,16.63034058,1402,25.75084877,1402,98.43257141,
1399,2.535553694,1399,5.802758694,1399,11.82493591,1399,15.64065838,1399,25.40140724,1399,100.1111526,
1396,2.834192753,1396,6.383599281,1396,11.55743313,1396,15.31392765,1396,25.49946213,1396,102.8740311,
1393,2.536563158,1393,5.853134155,1393,11.41994095,1393,17.37307358,1393,27.04759216,1393,105.6124191,
1390,2.5037992,1390,5.44637394,1390,11.34832191,1390,16.12471962,1390,24.39760017,1390,105.1316605,
1387,2.732901812,1387,4.924824715,1387,11.47057724,1387,15.42949104,1387,21.72725868,1387,102.7800903,
1384,2.683397293,1384,4.682496071,1384,12.28985596,1384,16.34099007,1384,23.43692589,1384,98.78748322,
1381,2.550272942,1381,5.282205582,1381,12.53940201,1381,14.80044174,1381,24.41581726,1381,98.67514038,
1378,2.781434059,1378,4.970694065,1378,11.6276598,1378,14.81480885,1378,23.40074539,1378,99.9960022,
1375,2.681559801,1375,4.425684929,1375,11.12589455,1375,16.58220291,1375,27.36768723,1375,102.8156891,
1372,2.520423412,1372,4.897889614,1372,11.4142437,1372,16.41349411,1372,29.38255882,1372,105.2498093,
1369,2.681151628,1369,3.932705402,1369,11.11168766,1369,15.18688488,1369,26.91026115,1369,104.9577713,
1366,2.704724312,1366,3.457964182,1366,11.10469723,1366,15.96697426,1366,25.34252167,1366,103.0870895,
1363,2.564929485,1363,3.615459919,1363,11.92919445,1363,15.88866138,1363,24.40527725,1363,99.03015137,
1360,2.589849234,1360,3.202820301,1360,11.39771366,1360,14.7222414,1360,22.63492203,1360,98.44771576,
1357,2.788788557,1357,3.063757658,1357,10.9447279,1357,15.02800179,1357,21.66669655,1357,99.75751495,
1354,2.635872364,1354,2.912972212,1354,10.25786972,1354,16.57999229,1354,24.691185,1354,102.5901108,
1351,2.484226227,1351,2.655358076,1351,9.993471146,1351,16.58589554,1351,27.29443359,1351,105.2337494,
1348,2.671727657,1348,2.169977665,1348,9.448418617,1348,15.56861877,1348,25.60878372,1348,105.2834244,
1345,2.718719482,1345,1.71967113,1345,9.189777374,1345,16.24857712,1345,25.17794991,1345,103.4889679,
1342,2.587342024,1342,1.615317941,1342,9.806043625,1342,16.58228874,1342,23.56081963,1342,98.98764801,
1339,2.634695768,1339,1.482897043,1339,9.682877541,1339,15.35511875,1339,20.95667648,1339,98.51377106,
1336,2.816994667,1336,1.38619256,1336,9.148783684,1336,15.17920971,1336,19.98752022,1336,99.49433899,
1333,2.743970394,1333,1.200146079,1333,8.870458603,1333,16.51216507,1333,22.18191338,1333,102.3835297,
1330,2.516927481,1330,1.237853408,1330,8.922245026,1330,17.19476128,1330,24.78808975,1330,105.1504974,
1327,2.583559752,1327,1.075579882,1327,8.83925724,1327,15.87259293,1327,24.92676926,1327,105.3746109,
1324,2.73009038,1324,0.8553732038,1324,8.623931885,1324,15.73805237,1324,23.65740013,1324,103.9083633,
1321,2.699709177,1321,0.7167732716,1321,9.200473785,1321,16.38632584,1321,23.56753159,1321,99.16870117,
1318,2.604563475,1318,0.7125823498,1318,9.477099419,1318,16.04346466,1318,23.25435448,1318,98.13126373,
1315,2.674744844,1315,0.6238803267,1315,9.367041588,1315,15.17795753,1315,21.18810272,1315,99.48937225,
1312,2.784391403,1312,0.5040766001,1312,8.794932365,1312,15.45079994,1312,22.38688278,1312,102.124527,
1309,2.661743641,1309,0.5617917776,1309,8.70657444,1309,16.55897713,1309,23.49598503,1309,104.9182281,
1306,2.507859468,1306,0.439905107,1306,9.145290375,1306,16.94288826,1306,24.79673958,1306,105.6261215,
1303,2.546235085,1303,0.4480150938,1303,9.294598579,1303,15.76109123,1303,24.53021431,1303,103.9972458,
1300,2.710156441,1300,0.3786750734,1300,9.436028481,1300,14.93521786,1300,22.9386425,1300,99.86418152,
1297,2.75364995,1297,0.2861222327,1297,9.289536476,1297,15.37749767,1297,25.28096199,1297,98.09286499,
1294,2.62872529,1294,0.3869317472,1294,9.714891434,1294,15.88259602,1294,25.06494141,1294,99.08868408,
1291,2.586204529,1291,0.1988396347,1291,9.674173355,1291,15.76631641,1291,24.47489738,1291,101.8706818,
1288,2.631394148,1288,0.3415258527,1288,8.788362503,1288,15.5123291,1288,23.41116142,1288,104.2361145,
1285,2.667886019,1285,0.2227009684,1285,8.778542519,1285,15.77055454,1285,22.84081078,1285,105.5121078,
1282,2.62426734,1282,0.1730551571,1282,9.061260223,1282,16.13645554,1282,25.27361298,1282,104.3084946,
1279,2.572811604,1279,0.2164124697,1279,9.809371948,1279,15.8114748,1279,23.88130379,1279,100.0864487,
1276,2.606805801,1276,0.2575883567,1276,9.856632233,1276,15.11223125,1276,24.20506859,1276,98.14598846,
1273,2.669558764,1273,0.1649954617,1273,9.592375755,1273,14.849123,1273,23.42875671,1273,99.18143463,
1270,2.727322578,1270,0.1624026299,1270,9.149635315,1270,15.11246586,1270,23.87567329,1270,101.771286,
1267,2.659636497,1267,0.1564931273,1267,8.801652908,1267,15.78960896,1267,26.02989006,1267,104.3928833,
1264,2.547447681,1264,0.129396528,1264,9.25178051,1264,16.27007484,1264,25.25395393,1264,105.4838333,
1261,2.514388561,1261,0.08299450576,1261,9.535763741,1261,15.95222378,1261,25.35601616,1261,104.1669998,
1258,2.578316927,1258,0.1471861005,1258,9.910019875,1258,15.09096146,1258,22.74286079,1258,100.4832611,
1255,2.699309111,1255,0.09592565894,1255,9.63977623,1255,14.54574871,1255,23.3290844,1255,98.08726501,
1252,2.724512339,1252,0.1570457667,1252,9.477897644,1252,14.86473846,1252,25.291008,1252,98.76557922,
1249,2.685773611,1249,0.09405720979,1249,9.695419312,1249,15.27268696,1249,25.38974953,1249,101.3481369,
1246,2.582527399,1246,0.06327566504,1246,9.427667618,1246,15.74500179,1246,25.94138145,1246,103.9965744,
1243,2.508512974,1243,0.1000292599,1243,9.768774033,1243,15.91840935,1243,24.38466644,1243,105.4134216,
1240,2.533088207,1240,-0.0647379905,1240,9.694256783,1240,15.35635281,1240,24.78415298,1240,104.4900513,
1237,2.608650446,1237,0.05959895626,1237,9.894338608,1237,14.75314045,1237,23.37840271,1237,100.6724014,
1234,2.69428277,1234,0.1364426166,1234,9.931362152,1234,14.52085972,1234,24.56453514,1234,98.23408508,
1231,2.687158346,1231,0.05632853135,1231,9.914335251,1231,14.61052036,1231,25.47322464,1231,98.79936218,
1228,2.652698755,1228,-0.004280532245,1228,10.05276966,1228,14.95185089,1228,26.06632614,1228,100.8812561,
1225,2.575434446,1225,0.1173248738,1225,9.720830917,1225,15.30655193,1225,26.68670464,1225,103.5940781,
1222,2.504984856,1222,0.09126076847,1222,10.10588455,1222,15.49898243,1222,26.8137989,1222,105.4531326,
1219,2.516767979,1219,0.04911536351,1219,10.09012985,1219,15.38642979,1219,26.65888977,1219,104.5782242,
1216,2.568688154,1216,0.04784961045,1216,10.50507355,1216,14.73789978,1216,24.17670822,1216,100.9488449,
1213,2.643671036,1213,0.1089866757,1213,10.44965744,1213,14.29066658,1213,25.39878845,1213,98.43444824,
1210,2.650906801,1210,0.01661418378,1210,10.41602612,1210,14.2862711,1210,25.78105927,1210,98.96173096,
1207,2.648437977,1207,0.08103497326,1207,10.42005539,1207,14.55443382,1207,27.33117294,1207,100.7781754,
1204,2.598589182,1204,0.08736566454,1204,10.21876144,1204,14.81724834,1204,26.80952454,1204,103.3225555,
1201,2.524214506,1201,0.06907469034,1201,10.48049927,1201,15.08106136,1201,27.47043991,1201,105.3817902,
1198,2.519125938,1198,0.04957988113,1198,10.70128345,1198,15.03790188,1198,27.4331131,1198,104.578949,
1195,2.577179909,1195,0.2700250745,1195,9.113663673,1195,16.23485756,1195,25.87023354,1195,104.5863647,
1192,2.538563967,1192,0.2130808532,1192,9.187965393,1192,16.37016296,1192,26.70441246,1192,105.3058395,
1189,2.543965816,1189,0.1904022545,1189,9.353120804,1189,16.00555992,1189,24.9807663,1189,103.3807068,
1186,2.588139057,1186,0.1606193483,1186,9.587505341,1186,15.59488964,1186,21.25613976,1186,99.84224701,
1183,2.649706841,1183,0.11084833,1183,9.334606171,1183,15.30013847,1183,19.90511703,1183,98.34726715,
1180,2.656282663,1180,0.06884402037,1180,9.084266663,1180,15.3686552,1180,20.43000221,1180,99.5772934,
1177,2.661504745,1177,0.02790547721,1177,8.715507507,1177,15.56613445,1177,22.08877563,1177,102.3336182,
1174,2.619363308,1174,0.07174162567,1174,8.238384247,1174,15.73013687,1174,24.05655479,1174,104.3025055,
1171,2.591817141,1171,-0.009250635281,1171,8.459062576,1171,15.7720623,1171,24.94871521,1171,105.4511414,
1168,2.604386091,1168,0.03445190936,1168,8.600229263,1168,15.483531,1168,23.99767113,1168,103.5521774,
1165,2.639928579,1165,0.0002911043703,1165,9.017361641,1165,15.24351406,1165,20.73506165,1165,100.0726852,
1162,2.69269371,1162,0.09305023402,1162,8.889217377,1162,14.92308235,1162,19.78355598,1162,98.39489746,
1159,2.685800791,1159,0.002299271058,1159,8.894870758,1159,15.15113068,1159,20.34682465,1159,99.52093506,
1156,2.678404331,1156,0.002326111542,1156,8.728819847,1156,15.21516609,1156,24.39975357,1156,102.0751114,
1153,2.632499218,1153,0.03925369307,1153,8.388887405,1153,15.52165318,1153,26.14396858,1153,103.9414978,
1150,2.582984209,1150,-0.03228574246,1150,8.566718102,1150,15.64991665,1150,24.95748901,1150,105.6461487,
1147,2.591582537,1147,-0.01379837375,1147,8.71546936,1147,15.39255524,1147,22.48980141,1147,103.9970779,
1144,2.620689869,1144,0.006763630547,1144,9.297086716,1144,15.10171413,1144,21.01144028,1144,100.1545792,
1141,2.677025795,1141,-0.05338368937,1141,9.237989426,1141,14.69358921,1141,21.34044838,1141,98.35092163,
1138,2.671303272,1138,0.06337350607,1138,9.172929764,1138,14.95293427,1138,22.46185875,1138,99.295578,
1135,2.669672012,1135,-0.02853641286,1135,9.049127579,1135,15.04064465,1135,25.96640968,1135,101.8140335,
1132,2.616868019,1132,0.03183531016,1132,8.604642868,1132,15.39521503,1132,25.81669998,1132,103.792717,
1129,2.570739746,1129,0.1213054433,1129,8.776535988,1129,15.62578201,1129,25.14618874,1129,105.4970169,
1126,2.576200485,1126,-0.006217156071,1126,8.782669067,1126,15.43226719,1126,22.59692192,1126,104.1987686,
1123,2.608281374,1123,0.02151381597,1123,9.472441673,1123,15.12343693,1123,21.55401611,1123,100.6395493,
1120,2.661069393,1120,0.07509674877,1120,9.317604065,1120,14.83272743,1120,22.01276779,1120,98.45838928,
1117,2.658493042,1117,0.04842034355,1117,9.245720863,1117,14.80377769,1117,24.97322083,1117,99.14263916,
1114,2.648360729,1114,-0.05427700281,1114,9.062776566,1114,15.16093922,1114,23.93560219,1114,101.6319504,
1111,2.608924866,1111,0.0469421111,1111,8.710366249,1111,15.39439678,1111,23.73771667,1111,103.6190262,
1108,2.547667742,1108,0.128767401,1108,8.867944717,1108,15.70789528,1108,23.61447334,1108,105.584465,
1105,2.547981739,1105,0.06359386444,1105,9.133024216,1105,15.64872456,1105,24.20045471,1105,104.4752808,
1102,2.5650599,1102,0.06150912866,1102,9.812434196,1102,15.33905697,1102,23.78463364,1102,101.0560379,
1099,2.62852025,1099,0.03001689352,1099,9.762321472,1099,14.87263107,1099,23.50264168,1099,98.56974792,
1096,2.636181116,1096,0.03048319556,1096,9.767743111,1096,14.82946682,1096,23.41263199,1096,98.87826538,
1093,2.629658222,1093,0.01370265987,1093,9.508811951,1093,15.05722713,1093,22.50736809,1093,101.5608063,
1090,2.602623463,1090,0.106355153,1090,8.983153343,1090,15.13918018,1090,24.04340744,1090,103.4701462,
1087,2.546028137,1087,0.02776931226,1087,9.087877274,1087,15.45748711,1087,25.33046341,1087,105.5970764,
1084,2.551894665,1084,0.02598316409,1084,9.187472343,1084,15.29051495,1084,27.5364399,1084,104.5473557,
1081,2.562471151,1081,-0.008397242054,1081,9.786472321,1081,15.09148598,1081,24.58199692,1081,101.1940918,
1078,2.616895437,1078,0.06617838144,1078,9.834682465,1078,14.81060123,1078,21.70388603,1078,98.68443298,
1075,2.625106573,1075,0.04975629225,1075,9.853645325,1075,14.67038345,1075,22.29039192,1075,98.72418976,
1072,2.614154577,1072,0.01166402269,1072,9.81672287,1072,14.99079514,1072,24.10409737,1072,101.3578262,
1069,2.588195562,1069,0.02701742947,1069,9.296674728,1069,15.07355404,1069,26.6253109,1069,103.2268066,
1066,2.53123641,1066,-0.003188944887,1066,9.378396034,1066,15.3281002,1066,26.83851433,1066,105.2517853,
1063,2.530375242,1063,0.001103740535,1063,9.635177612,1063,15.11999989,1063,25.50434113,1063,104.7189941,
1060,2.541074038,1060,-0.04164703563,1060,10.05053997,1060,14.86937141,1060,23.96555328,1060,101.6842041,
1057,2.599987268,1057,0.06919765472,1057,10.25956726,1057,14.5523119,1057,22.9731617,1057,98.87388611,
1054,2.61255002,1054,-0.02386502922,1054,10.19882298,1054,14.51196098,1054,25.16827011,1054,98.59218597,
1051,2.601578712,1051,0.062116649,1051,10.10236073,1051,14.74218082,1051,26.88348961,1051,101.0775681,
1048,2.572814703,1048,0.05625087768,1048,9.680095673,1048,14.86246014,1048,25.29397964,1048,103.155983,
1045,2.509552479,1045,0.04979656637,1045,9.783390045,1045,15.11900902,1045,25.93665695,1045,105.3197021,
1042,2.510393381,1042,0.1314471215,1042,10.02838039,1042,14.95113659,1042,26.33214569,1042,104.6655884,
1039,2.520736933,1039,0.08940056711,1039,10.60769463,1039,14.66993523,1039,26.246315,1039,101.7841568,
1036,2.575982809,1036,0.1090847775,1036,10.70202255,1036,14.2385397,1036,25.71086502,1036,99.06764984,
1033,2.589156866,1033,0.1289937794,1033,10.7238245,1033,14.3716259,1033,24.15688705,1033,98.65519714,
1030,2.575554609,1030,-0.009557257406,1030,10.84677601,1030,14.29777336,1030,25.29679298,1030,100.9347687,
1027,2.556996584,1027,0.09693562984,1027,10.3142252,1027,14.3697443,1027,26.9205246,1027,102.6245575,
1024,2.486916542,1024,0.1474096626,1024,10.40532303,1024,14.82751179,1024,29.09736633,1024,105.2507248,
1021,2.483312607,1021,0.02582571469,1021,10.67772484,1021,14.7472353,1021,29.23783875,1021,104.5981445,
1018,2.49090147,1018,0.01886618137,1018,11.32973862,1018,14.33858395,1018,25.68033028,1018,101.7658081,
1015,2.539553165,1015,0.07193432003,1015,11.63795948,1015,13.9152441,1015,24.81055641,1015,99.24157715,
1012,2.557427168,1012,0.07089929283,1012,11.53552341,1012,13.93940449,1012,27.20848274,1012,98.69710541,
1009,2.541841269,1009,0.09485641867,1009,11.68161106,1009,14.05870724,1009,29.16219521,1009,100.6504898,
1006,2.521868706,1006,0.1595052183,1006,11.47052574,1006,13.87359333,1006,29.34213829,1006,102.4035721,
1003,2.459758043,1003,0.168483898,1003,11.44780731,1003,14.28848934,1003,29.62348747,1003,104.5654984,
1000,2.599365234,1000,-4.426386356,1000,7.025757313,1000,17.7793541,1000,20.32498169,1000,107.1091614,
997,2.473792791,997,0.2396272421,997,10.88196564,997,14.26077747,997,19.81987,997,108.8231049,
994,2.599893808,994,1.047204375,994,9.655573845,994,18.90307236,994,23.00120926,994,104.1864624,
991,2.60679388,991,-1.694440246,991,8.883589745,991,14.25986004,991,17.56450272,991,101.8616104,
988,2.666779041,988,2.224570274,988,6.800396919,988,15.65235233,988,16.64418793,988,99.24581909,
985,2.604711294,985,2.372420788,985,6.960691452,985,16.84552193,985,16.79810715,985,101.449379,
982,2.684619427,982,1.373654366,982,7.234145164,982,17.56144142,982,18.09933472,982,99.05835724,
979,2.653306484,979,0.2315583378,979,6.631299019,979,17.60633469,979,18.99481201,979,102.5733261,
976,2.558787107,976,1.104333639,976,7.608458519,976,18.54834557,976,20.2589283,976,108.845314,
973,2.58236146,973,-0.3323313594,973,6.952115059,973,16.19955444,973,18.92459106,973,104.8280716,
970,2.600041151,970,1.08004868,970,8.332397461,970,16.55290604,970,23.52373886,970,102.5741196,
967,2.70807004,967,0.1813419908,967,9.556670189,967,15.41460419,967,19.90236092,967,97.09855652,
964,2.686166286,964,1.346800923,964,8.626506805,964,15.69444275,964,16.48957062,964,97.6759491,
961,2.508524895,961,0.1667513847,961,8.514696121,961,16.56966019,961,18.64296913,961,105.9824142,
958,2.674499512,958,-0.2289694995,958,8.006625175,958,16.59331512,958,23.17006302,958,101.4365234,
955,2.554774284,955,-0.3446346521,955,7.769692898,955,17.36688995,955,22.53315353,955,105.2841568,
952,2.60834527,952,1.228163719,952,7.227387905,952,16.1682682,952,19.32578659,952,103.473175,
949,2.587246418,949,1.424480557,949,7.68943882,949,16.13788795,949,20.07103348,949,97.9875946,
946,2.561343908,946,0.2364582866,946,8.629505157,946,16.01059341,946,19.76303673,946,100.0852966,
943,2.65602088,943,0.8338099122,943,8.505977631,943,15.89625454,943,20.5170517,943,98.23889923,
940,2.685120344,940,0.7280939221,940,8.418924332,940,16.45507431,940,18.09830284,940,98.76134491,
937,2.651403904,937,0.2685006559,937,8.633363724,937,15.93584538,937,17.99310493,937,102.7588348,
934,2.588468313,934,0.6240947843,934,7.625418186,934,17.19174004,934,21.55033302,934,106.3051453,
931,2.559987068,931,0.922462225,931,8.414964676,931,16.49908257,931,22.36790085,931,104.85746,
928,2.5772686,928,0.2451087087,928,8.663511276,928,16.1264267,928,19.86358833,928,104.5460968,
925,2.611480951,925,0.1831606925,925,8.851344109,925,15.84592056,925,17.90641212,925,99.99434662,
922,2.686476707,922,0.3602454662,922,8.721302032,922,15.4598999,922,18.47257614,922,97.81934357,
919,2.662843704,919,0.1975164562,919,8.892971039,919,15.51562405,919,20.1911068,919,98.92622375,
916,2.63819766,916,0.2902595103,916,8.738286972,916,16.64088249,916,19.32782364,916,103.2527695,
913,2.546827793,913,0.1650808305,913,8.65518856,913,16.58465004,913,20.68504333,913,106.5717926,
910,2.554183245,910,0.3806599975,910,8.681353569,910,16.57447433,910,22.90117836,910,105.6068192,
907,2.563754082,907,0.1895396709,907,8.918276787,907,16.1773262,907,19.87727356,907,104.7323608,
904,2.602844238,904,0.3972241282,904,9.410906792,904,15.22310257,904,17.19627762,904,100.4311295,
901,2.676392794,901,0.3476185203,901,9.108960152,901,15.09687424,901,17.85992813,901,98.32933807,
898,2.65688014,898,0.3451934457,898,9.099019051,898,15.31483936,898,19.45043564,898,99.39146423,
895,2.64228487,895,0.3017025292,895,8.895756721,895,15.35583687,895,19.69895744,895,101.9864655,
892,2.578644514,892,0.4118354619,892,8.813948631,892,16.17380142,892,19.94395447,892,105.4691544,
889,2.534453154,889,0.3173004091,889,8.886787415,889,16.138834,889,22.19733047,889,107.0264359,
886,2.554960966,886,0.3576364517,886,8.906687737,886,15.76594257,886,20.63498116,886,104.9508057,
883,2.608963728,883,0.2931111753,883,9.494317055,883,15.44247723,883,17.0522213,883,99.82532501,
880,2.650943995,880,0.3437006176,880,9.336465836,880,15.07149315,880,18.21155739,880,97.86798859,
877,2.643025637,877,0.318105042,877,9.351064682,877,15.28743076,877,19.48464012,877,99.00636292,
874,2.644253254,874,0.4010254145,874,9.134782791,874,15.58455849,874,18.93017197,874,102.2160187,
871,2.569971323,871,0.3456834853,871,8.8794384,871,16.04347992,871,19.21259689,871,105.8445587,
868,2.532443523,868,0.3586647213,868,8.93360424,868,16.07288742,868,21.76506615,868,106.2027435,
865,2.548308372,865,0.3518064022,865,8.936944962,865,15.86055183,865,20.11247063,865,104.9316177,
862,2.596832275,862,0.3628164828,862,9.448239326,862,15.30759335,862,17.15600014,862,99.96347046,
859,2.642392874,859,0.3275927603,859,9.41572094,859,15.03395462,859,19.03615189,859,97.89060211,
856,2.629207134,856,0.353422761,856,9.230295181,856,15.17862225,856,19.12614059,856,98.58278656,
853,2.61743021,853,0.3259047866,853,8.974620819,853,15.37851238,853,18.21259499,853,101.9222946,
850,2.559754848,850,0.352838695,850,8.442830086,850,15.76397896,850,19.71793556,850,105.0392761,
847,2.515764236,847,0.3273133039,847,8.293896675,847,16.05508804,847,22.24723625,847,106.4800262,
844,2.51390624,844,0.3315929174,844,8.201767921,844,15.82990551,844,19.18918991,844,105.310463,
841,2.538764477,841,0.3064571321,841,7.946146488,841,15.32028008,841,18.00033951,841,100.5198517,
838,2.592693567,838,0.3115496933,838,7.808432102,838,14.97892857,838,19.15236092,838,97.80555725,
835,2.588280439,835,0.2991577983,835,7.974659443,835,14.99337292,835,17.32306099,835,98.48352051,
832,2.577936172,832,0.295514226,832,7.575046062,832,15.26387024,832,18.53202057,832,101.6132736,
829,2.523243904,829,0.2797668874,829,7.094859123,829,15.59562969,829,21.69382858,829,104.701889,
826,2.475669861,826,0.2761082351,826,7.133477211,826,15.80040932,826,19.91949844,826,106.3423309,
823,2.484692812,823,0.2481369972,823,7.20775032,823,15.52953148,823,19.03999519,823,105.3652649,
820,2.517469406,820,0.1800396293,820,7.622143745,820,14.98687553,820,19.80291176,820,100.7615814,
817,2.585007906,817,0.1591735929,817,7.676504612,817,14.60365486,817,17.19251442,817,97.83803558,
814,2.583404064,814,0.1386908591,814,7.611052036,814,14.71910286,814,17.21649551,814,98.52388763,
811,2.573417902,811,0.1451513767,811,7.604284763,811,14.99420547,811,20.09981918,811,101.4786224,
808,2.529057026,808,0.1499230117,808,7.213523865,808,15.28900909,808,18.97475815,808,104.3494492,
805,2.477231741,805,0.1506047845,805,7.240250111,805,15.57224846,805,19.75503159,805,106.4099579,
802,2.486071348,802,0.1567433029,802,7.268428802,802,15.4460144,802,21.32424927,802,105.5957336,
800,1.638475299,800,0.2374696583,800,40.57218933,800,9.122698784,800,62.6228981,800,100.4839096,
798,1.637709856,798,0.4907896817,798,40.38958359,798,9.382734299,798,62.22485352,798,99.74466705,
796,1.620805502,796,0.4844926894,796,40.18714905,796,9.56648922,796,63.97391129,796,100.2554398,
794,1.6497159,794,0.499951005,794,40.15449142,794,9.256443977,794,64.27429199,794,100.4787064,
792,1.612589836,792,0.4893068075,792,40.54840088,792,9.608652115,792,63.11147308,792,99.79576874,
790,1.645446181,790,0.4754953086,790,40.50881958,790,9.318480492,790,63.41835403,790,99.90412903,
788,1.633010983,788,0.5000290871,788,39.87593842,788,9.453408241,788,64.15316772,788,100.1676331,
786,1.617789626,786,0.469640255,786,40.39262772,786,9.579301834,786,64.66384888,786,100.3436127,
784,1.651951671,784,0.4579527378,784,40.43356323,784,9.175404549,784,62.49676895,784,99.70111084,
782,1.612756729,782,0.4803372622,782,40.06188202,782,9.682045937,782,63.00048828,782,100.2262497,
780,1.646463394,780,0.4625683725,780,40.08387375,780,9.294326782,780,64.22930145,780,100.5609283,
778,1.613796711,778,0.4588731527,778,40.52795792,778,9.609727859,778,64.39131165,778,100.0836105,
776,1.647105813,776,0.4501144886,776,40.30992889,776,9.259464264,776,63.41428757,776,99.78388214,
774,1.621408224,774,0.4615006447,774,39.79877472,774,9.551082611,774,62.88409424,774,100.1156921,
772,1.635484457,772,0.4535336494,772,40.15449142,772,9.405846596,772,63.88083649,772,100.3304367,
770,1.624035835,770,0.4615971446,770,40.44327927,770,9.468401909,770,63.98354721,770,99.95265961,
768,1.63651371,768,0.458196044,768,40.05075455,768,9.417531967,768,62.95556259,768,100.1212616,
766,1.624610305,766,0.4665629864,766,39.99488449,766,9.482890129,766,63.45964813,766,100.2535858,
764,1.631603718,764,0.4492153823,764,40.35995483,764,9.450199127,764,64.29408264,764,100.0534668,
762,1.627661467,762,0.4567881525,762,40.27833176,762,9.456980705,762,63.87522888,762,99.8235321,
760,1.635041237,760,0.4631844759,760,39.64995193,760,9.390117645,760,62.92921829,760,100.1746445,
758,1.618258476,758,0.4587178528,758,40.14068604,758,9.515189171,758,62.92227554,758,100.4752884,
756,1.637848139,756,0.4539604783,756,40.15744781,756,9.312681198,756,64.08589935,756,99.99923706,
754,1.614916086,754,0.4591228962,754,40.21714783,754,9.605648994,754,64.18927002,754,99.89501953,
752,1.641265512,752,0.4422415495,752,39.61219788,752,9.237870216,752,62.96988678,752,100.4492874,
750,1.603841543,750,0.4585858881,750,40.42202377,750,9.737659454,750,62.79846573,750,100.2722397,
748,1.638536215,748,0.4704554975,748,40.10443497,748,9.257694244,748,63.69379044,748,99.91668701,
746,1.619295239,746,0.4502725899,746,39.75812149,746,9.586923599,746,63.08447266,746,100.2623291,
744,1.618736267,744,0.4538569152,744,39.94255829,744,9.455021858,744,62.39951706,744,100.4166336,
742,1.633120656,742,0.4695197046,742,40.08956909,742,9.370409012,742,63.15370178,742,100.0963058,
740,1.610100508,740,0.4399203658,740,40.22959518,740,9.633242607,740,63.75695419,740,99.92404938,
738,1.633487225,738,0.4427384138,738,39.54747772,738,9.286874771,738,62.4492836,738,100.318718,
736,1.612202883,736,0.4736539125,736,40.22883606,736,9.623557091,736,61.92915344,736,100.1763458,
734,1.616062164,734,0.43910411,734,40.30524445,734,9.495957375,734,63.06541443,734,99.74221802,
732,1.635325313,732,0.4419614673,732,39.39523697,732,9.253190041,732,62.95306015,732,100.1067276,
730,1.607380629,730,0.4705735147,730,39.98732758,730,9.698854446,730,62.38564682,730,100.4424438,
728,1.613152266,728,0.4359430075,728,40.35879517,728,9.469539642,728,62.47707748,728,100.0394821,
726,1.630647302,726,0.4289354086,726,39.79259491,726,9.272953033,726,62.79204941,726,99.92062378,
724,1.606806517,724,0.4334852695,724,39.87571716,724,9.633278847,724,61.71178055,724,100.3692169,
722,1.606042147,722,0.429310143,722,40.31156921,722,9.519529343,722,62.09052277,722,100.265213,
720,1.627306223,720,0.4264555871,720,39.9010582,720,9.276548386,720,62.54236221,720,99.69152832,
718,1.613781214,718,0.4277274609,718,39.73669434,718,9.523687363,718,61.68753052,718,99.90011597,
716,1.59942174,716,0.4254688025,716,40.05952835,716,9.591104507,716,61.59474945,716,100.1866608,
714,1.615000844,714,0.4360594451,714,40.12404633,714,9.325548172,714,61.54071808,714,99.82475281,
712,1.616072655,712,0.4088154137,712,39.90084076,712,9.232162476,712,60.81401825,712,99.75186157,
710,1.59851706,710,0.401374191,710,39.78005219,710,9.393305779,710,60.7665062,710,100.2892456,
708,1.592829823,708,0.3253329694,708,40.2093811,708,9.392104149,708,61.57939911,708,100.3319016,
706,1.605780363,706,0.2280960828,706,40.00955963,706,9.174571037,706,60.10419846,706,99.86220551,
704,1.609269023,704,0.2314672619,704,39.5687561,704,9.165390968,704,59.90136719,704,100.1518631,
702,1.594260335,702,0.2257725447,702,39.93868256,702,9.3658638,702,60.59892273,702,100.5753403,
700,1.589294314,700,0.2346233726,700,40.51252747,700,9.380734444,700,59.86724472,700,100.0201721,
698,1.595595837,698,0.2490852326,698,40.18809128,698,9.262393951,698,59.05017853,698,99.82602692,
696,1.600393295,696,0.2145617753,696,39.52303696,696,9.187807083,696,59.78414536,696,100.0912399,
694,1.595820904,694,0.2289255559,694,39.95072174,694,9.213258743,694,59.44202042,694,100.4139404,
692,1.594797373,692,0.2198990732,692,40.32481766,692,9.227735519,692,57.90982056,692,99.83505249,
690,1.590721726,690,0.2199159712,690,40.1357193,690,9.291009903,690,58.95554352,690,100.1080627,
688,1.581776381,688,0.2129271626,688,40.10205078,688,9.34127903,688,59.21403885,688,100.5546951,
686,1.581410885,686,0.221668005,686,40.50155258,686,9.307265282,686,57.52943039,686,100.1498795,
684,1.588298321,684,0.2482565641,684,40.2953949,684,9.250452042,684,57.9192276,684,99.82974243,
682,1.5876472,682,0.2196792066,682,39.76252365,682,9.242995262,682,58.52383423,682,100.1966476,
680,1.58252418,680,0.248825267,680,40.11024094,680,9.274390221,680,57.52966309,680,100.4611282,
678,1.583675861,678,0.2115966529,678,40.41367722,678,9.216072083,678,57.36832428,678,99.93862915,
676,1.58390975,676,0.2078005522,676,40.11029434,676,9.22820282,676,57.70744705,676,100.0724792,
674,1.5761379,674,0.2257201821,674,40.05135727,674,9.28405571,674,57.13922501,674,100.4742966,
672,1.573760629,672,0.2110798806,672,40.51484299,672,9.252464294,672,56.97145462,672,100.1844254,
670,1.577120304,670,0.2379805744,670,40.46588516,670,9.275785446,670,56.91855621,670,99.81513214,
668,1.572782159,668,0.2300351858,668,40.01130676,668,9.275642395,668,56.7871933,668,100.2518539,
666,1.565734148,666,0.2117571235,666,40.28343964,666,9.29193306,666,57.13740158,666,100.5295868,
664,1.56705904,664,0.2035353333,664,40.59223557,664,9.253343582,664,56.42442703,664,99.959198,
662,1.567955494,662,0.2062228471,662,40.35204315,662,9.267784119,662,56.59527206,662,100.0538254,
660,1.561782598,660,0.23453179,660,40.08706665,660,9.295613289,660,56.98238754,660,100.483963,
658,1.558811188,658,0.2215040624,658,40.51128769,658,9.27404213,658,55.98923492,658,100.1845398,
656,1.561752081,656,0.2253466696,656,40.42366409,656,9.240157127,656,55.89848328,656,99.7746048,
654,1.557976246,654,0.2288172692,654,39.9949913,654,9.279063225,654,56.64091873,654,100.2032547,
652,1.55102551,652,0.2226754725,652,40.15215683,652,9.317961693,652,56.18551254,652,100.5218964,
650,1.551696181,650,0.224774003,650,40.59945297,650,9.259572983,650,55.84828186,650,100.0292892,
648,1.553889394,648,0.2232284546,648,40.38938904,648,9.241772652,648,56.03086853,648,99.95903778,
646,1.550212264,646,0.2080565542,646,40.0436058,646,9.281517982,646,56.14089203,646,100.3684616,
644,1.548654437,644,0.2242849469,644,40.46754456,644,9.254779816,644,56.29214478,644,100.2584305,
642,1.554388404,642,0.2241107672,642,40.36362839,642,9.236558914,642,55.5436554,642,99.82807922,
640,1.555247188,640,0.22604388,640,39.90959549,640,9.254051208,640,56.48485565,640,100.1406174,
638,1.550673008,638,0.2077569067,638,40.08164215,638,9.269348145,638,56.86551285,638,100.4826889,
636,1.55558598,636,0.2043563128,636,40.62772751,636,9.220733643,636,56.01947784,636,100.0249252,
634,1.565116286,634,0.2164883316,634,40.50139236,634,9.20781517,634,57.04086304,634,99.92082977,
632,1.569362521,632,0.2029728591,632,40.02881241,632,9.243678093,632,56.91450882,632,100.2960663,
630,1.570269704,630,0.2082715482,630,40.49130249,630,9.285422325,630,57.35564423,630,100.3542938,
628,1.579857588,628,0.2053023726,628,40.57939529,628,9.203621864,628,57.58567047,628,99.7923584,
626,1.58522594,626,0.2017815858,626,40.25235748,626,9.225862503,626,57.59902573,626,100.1075287,
624,1.585217714,624,0.2078929693,624,40.33879089,624,9.296142578,624,58.99187469,624,100.4692917,
622,1.587823272,622,0.1942277253,622,40.68080902,622,9.272741318,622,58.02323914,622,100.0693588,
620,1.589851975,620,0.1887577623,620,40.57464218,620,9.205361366,620,59.12485886,620,99.95133209,
618,1.587813854,618,0.1646943688,618,40.15564728,618,9.285196304,618,59.36193466,618,100.2038269,
616,1.581340075,616,0.1871514022,616,40.35621262,616,9.324979782,616,59.30445862,616,100.3949509,
614,1.579109907,614,0.1873628348,614,40.42521286,614,9.246289253,614,60.18243408,614,99.87825775,
612,1.574338794,612,0.1702203751,612,40.04346466,612,9.329154968,612,59.86100388,612,100.1660461,
610,1.562387347,610,0.1969228983,610,39.86394501,610,9.36386013,610,60.87891388,610,100.5786209,
608,1.554997444,608,0.1919931769,608,40.32717514,608,9.284807205,608,60.05071259,608,100.2443771,
606,1.555505276,606,0.1948820204,606,39.97753143,606,9.34824276,606,60.89768219,606,99.96924591,
604,1.54867208,604,0.2081523836,604,39.48971176,604,9.285840034,604,60.50358582,604,100.3510132,
602,1.541328192,602,0.2041711658,602,39.80230713,602,9.386244774,602,61.26918793,602,100.508667,
600,1.545608401,600,0.2015698701,600,39.90040588,600,9.254060745,600,60.64584351,600,99.97879028,
598,1.54979682,598,0.2059309036,598,39.72805405,598,9.313476563,598,61.45133972,598,100.1857529,
596,1.553469419,596,0.2005132586,596,39.56292725,596,9.282295227,596,61.75488663,596,100.5521927,
594,1.562088609,594,0.1917879581,594,40.26340485,594,9.286878586,594,61.8363266,594,100.2674789,
592,1.58182013,592,0.1835601777,592,40.14951706,592,9.200935364,592,62.15192795,592,99.90720367,
590,1.592983723,590,0.179211393,590,39.96917725,590,9.266126633,590,62.39460754,590,100.2527237,
588,1.599085331,588,0.1573360562,588,40.3390007,588,9.169911385,588,63.58801651,588,100.3610992,
586,1.607777357,586,0.1545661688,586,40.75437164,586,9.239539146,586,62.42959976,586,99.97511292,
584,1.607894182,584,0.1583741009,584,40.66008759,584,9.140418053,584,63.94956207,584,100.0506287,
582,1.604398847,582,0.1609833241,582,40.43462372,582,9.223891258,582,62.89094162,582,100.3398056,
580,1.594588399,580,0.1650284082,580,40.90927887,580,9.198601723,580,64.13128662,580,100.1699295,
578,1.591973543,578,0.1702293456,578,40.7246933,578,9.108481407,578,62.46856308,578,99.86167145,
576,1.586023211,576,0.1656970531,576,40.16769028,576,9.182383537,576,63.56080627,576,100.0916595,
574,1.572610259,574,0.1606010944,574,40.36724472,574,9.219347954,574,63.133358,574,100.4236069,
572,1.568780303,572,0.1595941186,572,40.67753983,572,9.149484634,572,62.87176514,572,100.0162277,
570,1.567132354,570,0.1794140786,570,40.41598129,570,9.146249771,570,62.34706497,570,100.1415482,
568,1.565971255,568,0.190871343,568,40.54294968,568,9.179804802,568,62.36359406,568,99.9330368,
566,1.561880112,566,0.1829115748,566,40.07289886,566,9.194004059,566,62.23153305,566,100.2008667,
564,1.554163218,564,0.188224569,564,40.11906433,564,9.211544991,564,62.07608032,564,100.5505905,
562,1.554657578,562,0.1782336086,562,40.57287216,562,9.167941093,562,61.82579422,562,100.1567383,
560,1.557608843,560,0.1783575565,560,40.38681412,560,9.125074387,560,60.90791702,560,100.0111237,
558,1.554666877,558,0.1721638292,558,39.9396286,558,9.190335274,558,61.91202927,558,100.391304,
556,1.549143553,556,0.178413704,556,40.33711243,556,9.175970078,556,61.12837219,556,100.4679337,
554,1.551855683,554,0.1904266477,554,40.49420929,554,9.121693611,554,61.41188049,554,99.91697693,
552,1.553016782,552,0.189600721,552,40.07338715,552,9.115552902,552,61.12272263,552,100.1314774,
550,1.547464609,550,0.1806082428,550,40.10245132,550,9.16837883,550,61.66130447,550,100.501564,
548,1.547317624,548,0.1859320253,548,40.54647064,548,9.14134407,548,60.97112274,548,100.2379761,
546,1.551442504,546,0.1738282442,546,40.36496735,546,9.091477394,546,60.7154541,546,100.018692,
544,1.542318106,544,0.1779059619,544,39.78832245,544,9.123850822,544,61.67495346,544,100.2413177,
542,1.538712502,542,0.1839687377,542,39.94890976,542,9.155957222,542,60.16740036,542,100.4628067,
540,1.544936776,540,0.185346514,540,40.22958755,540,9.119680405,540,60.81020355,540,99.92840576,
538,1.546960473,538,0.1750524789,538,39.98011398,538,9.125339508,538,60.49755096,538,100.1361389,
536,1.542024255,536,0.1825058311,536,39.89665604,536,9.149349213,536,60.53634262,536,100.5345306,
534,1.541311264,534,0.1863744408,534,40.37242508,534,9.130317688,534,60.46118164,534,100.2739334,
532,1.546019673,532,0.1906873435,532,40.17387009,532,9.113296509,532,59.6538887,532,99.88715363,
530,1.546213746,530,0.1718499064,530,39.69519806,530,9.114893913,530,60.4288826,530,100.2834473,
528,1.5423522,528,0.1881164759,528,39.88627625,528,9.135575294,528,60.36059952,528,100.4538193,
526,1.545836091,526,0.1802623272,526,40.13434219,526,9.100374222,526,59.49788666,526,99.97543335,
524,1.545827746,524,0.1849542409,524,39.9122467,524,9.113955498,524,60.54021835,524,100.1039276,
522,1.540758967,522,0.1849588305,522,39.68679428,522,9.160013199,522,60.63145447,522,100.5015259,
520,1.54041028,520,0.1816800982,520,40.09588623,520,9.123108864,520,59.89658356,520,100.2411118,
518,1.544453263,518,0.1855678558,518,40.01067734,518,9.112713814,518,60.13720703,518,99.96555328,
516,1.542822123,516,0.1852578074,516,39.50766373,516,9.145816803,516,61.01411057,516,100.2605438,
514,1.538741708,514,0.1830009818,514,39.6411171,514,9.163006783,514,60.43498993,514,100.5620117,
512,1.539157391,512,0.1889502406,512,40.04094315,512,9.171458244,512,60.39236832,512,100.0921021,
510,1.543222666,510,0.1898405552,510,39.73461151,510,9.119566917,510,60.9138298,510,100.0563354,
508,1.536925554,508,0.1806254089,508,39.49069977,508,9.225229263,508,60.45357513,508,100.4638519,
506,1.535051465,506,0.1766016334,506,39.95461273,506,9.167004585,506,60.26882553,506,100.3447876,
504,1.537621498,504,0.1818593889,504,39.92877197,504,9.181528091,504,60.09740829,504,99.98137665,
502,1.538405538,502,0.1829874068,502,39.42448425,502,9.155155182,502,60.60101318,502,100.1772308,
500,1.531956673,500,0.1746705174,500,39.61523056,500,9.23374939,500,60.45035172,500,100.5765915,
498,1.533261538,498,0.1850298792,498,39.98843384,498,9.160275459,498,60.30086899,498,100.0789795,
496,1.534617782,496,0.1779361218,496,39.90830612,496,9.179171562,496,60.7759285,496,99.97866821,
494,1.531946659,494,0.1864056289,494,39.53954697,494,9.224672318,494,60.97280884,494,100.3163681,
492,1.527286172,492,0.1834235936,492,40.0356102,492,9.21646595,492,60.60749435,492,100.3547668,
490,1.530858278,490,0.1821611375,490,40.10499191,490,9.163960457,490,60.38638306,490,99.89323425,
488,1.529721498,488,0.1707419008,488,39.7264061,488,9.19070816,488,60.96010208,488,100.2228012,
486,1.523368478,486,0.1818691939,486,39.85652161,486,9.225871086,486,61.07800674,486,100.4956512,
484,1.522870898,484,0.1689532697,484,40.3544693,484,9.198805809,484,60.35778046,484,100.1640549,
482,1.526073337,482,0.1826999187,482,40.23265076,482,9.174433708,482,60.23918533,482,99.99993896,
480,1.522313476,480,0.1752020121,480,39.88227081,480,9.196086884,480,60.48824692,480,100.3617783,
478,1.518925428,478,0.1742303371,478,40.27949142,478,9.196308136,478,60.31254578,478,100.3291397,
476,1.521178007,476,0.1816092134,476,40.39330292,476,9.172221184,476,59.84474945,476,99.83969116,
474,1.519958258,474,0.16641891,474,40.03234482,474,9.211004257,474,59.98022079,474,100.2261276,
472,1.512833834,472,0.1639988124,472,40.17103958,472,9.224100113,472,58.80488586,472,100.63311,
470,1.512619138,470,0.1876235753,470,40.62617493,470,9.190935135,470,57.78852081,470,100.17173,
468,1.514783502,468,0.1847816855,468,40.4863205,468,9.145782471,468,56.86776733,468,99.91464996,
466,1.512339354,466,0.1760177016,466,40.04060364,466,9.161584854,466,56.40602875,466,100.3648529,
464,1.507033706,464,0.1704149693,464,40.42676544,464,9.181944847,464,55.58140945,464,100.4639359,
462,1.509855151,462,0.1774356067,462,40.57633972,462,9.142394066,462,54.72789383,462,100.0014648,
460,1.510501981,460,0.1755963713,460,40.16306305,460,9.139287949,460,54.88669205,460,100.1369324,
458,1.502972007,458,0.1737482399,458,40.15398026,458,9.188669205,458,55.05805206,458,100.5965958,
456,1.5017308,456,0.1682079434,456,40.58633423,456,9.179862976,456,54.94710159,456,100.318634,
454,1.505416274,454,0.171218425,454,40.33319092,454,9.143661499,454,55.6101799,454,99.92298126,
452,1.504119635,452,0.1697420627,452,39.87902069,452,9.187457085,452,56.67411804,452,100.2161407,
450,1.497455955,450,0.1723317802,450,40.1298027,450,9.205975533,450,57.63156509,450,100.5543213,
448,1.498385072,448,0.1717374474,448,40.30533218,448,9.168362617,448,57.65763474,448,100.1111298,
446,1.49964869,446,0.1910718083,446,40.05300522,446,9.199670792,446,58.35033798,446,100.205864,
444,1.494029999,444,0.1854783744,444,39.85811615,444,9.232301712,444,58.68241882,444,100.6152725,
442,1.491267085,442,0.1891504228,442,40.29582977,442,9.225734711,442,58.23029709,442,100.3849411,
440,1.496492624,440,0.1891108751,440,40.12441254,440,9.19954586,440,57.89709854,440,99.91442108,
438,1.496226907,438,0.1679651886,438,39.70240784,438,9.211452484,438,57.89387131,438,100.2562561,
436,1.489839554,436,0.1764708459,436,39.9198761,436,9.258400917,436,57.17431259,436,100.5922775,
434,1.494030237,434,0.1880556494,434,40.19287872,434,9.211044312,434,55.17218781,434,100.0296249,
432,1.49753201,432,0.1746219695,432,39.93508911,432,9.184427261,432,53.75165176,432,100.0254364,
430,1.493210912,430,0.1751311719,430,39.79621887,430,9.237319946,430,52.83866501,430,100.6396027,
428,1.49394691,428,0.1842919439,428,40.26609039,428,9.255291939,428,51.79454803,428,100.3068542,
426,1.502124071,426,0.1873144358,426,40.21979523,426,9.160863876,426,51.41326141,426,99.92687988,
424,1.504668474,424,0.1755244285,424,39.8365097,424,9.217494011,424,51.7440567,424,100.231781,
422,1.502078176,422,0.1800847203,422,40.01260376,422,9.205884933,422,51.76338959,422,100.512085,
420,1.508387208,420,0.1858561188,420,40.41161728,420,9.118700027,420,51.17290115,420,99.99481201,
418,1.511752844,418,0.1793572903,418,40.32263947,418,9.126477242,418,51.49985504,418,100.1032257,
416,1.512311101,416,0.1548232883,416,39.95605469,416,9.167685509,416,51.62101364,416,100.420845,
414,1.512709975,414,0.1798030585,414,40.48049927,414,9.138204575,414,51.26054382,414,100.3496857,
412,1.518535495,412,0.1583427936,412,40.38801193,412,9.047671318,412,51.02313232,412,99.87797546,
410,1.522584677,410,0.1824510992,410,39.96097946,410,9.078214645,410,51.45177078,410,100.1597061,
408,1.51907444,408,0.1965308338,408,40.10906601,408,9.087526321,408,51.61148834,408,100.5364761,
406,1.521184564,406,0.1554045379,406,40.57659912,406,9.068222046,406,51.01317596,406,100.1581039,
404,1.524393201,404,0.1681098491,404,40.32745361,404,9.033678055,404,51.34276581,404,100.1541748,
402,1.523047924,402,0.1840214729,402,39.806633,402,9.046549797,402,51.4671669,402,100.3571243,
400,1.518165469,400,0.1972259283,400,40.23472214,400,9.04367733,400,51.13741684,400,100.4614258,

Baseline 100%T,
Baseline 100%T
Collection Time: 16/11/2023 3:32:23 PM
Operator Name  :
Scan Software Version: 4.10(464)
Parameter List :
Instrument                        Cary 5000
Instrument Version                1.12
Start (nm)                        1600.00
Stop (nm)                         400.00
X Mode                            Nanometers
Y Mode                            %T
Independent NIR                   On
Measurement Mode                  Auto
UV-Vis Data Interval (nm)         2.00
UV-Vis Ave. Time (sec)            0.100
UV-Vis SBW (nm)                   2.000
NIR Scan Rate (nm/min)            1800.000
NIR Data Interval (nm)            3.00
NIR Ave. Time (sec)               0.100
NIR Energy                        3.00
Slit Height                       Full
Beam Mode                         Double
Signal-to-noise Mode              Off
UV Source                         On
Vis Source                        On
Third Source                      Off
Source Changeover (nm)            300.00
Detector Changeover (nm)          1005.00
Grating Changeover (nm)           800.00
Baseline Correction               On
Baseline Type                     Baseline correction
Baseline File Name
Baseline Std Ref File Name
Cycle Mode                        Off
Comments
Method Log     :
Method Name    :
Date/Time stamp: 16/11/2023 2:48:44 PM
Method Modifications:
X Start nm Changed: 16/11/2023 2:57:04 PM, Old: 800.00, New:1600.00
Idpt Control Changed: 16/11/2023 2:57:04 PM, Old:0, New:1
UVVIS Interval nm Changed: 16/11/2023 2:57:04 PM, Old:     1.00, New:     2.00
NIR Scan Rate nm Changed: 16/11/2023 2:57:04 PM, Old:  600.000, New: 1800.000
NIR Interval nm Changed: 16/11/2023 2:57:04 PM, Old:     1.00, New:     3.00
Baseline Correction Changed: 16/11/2023 2:57:04 PM, Old:0, New:1
Y mode Changed: 16/11/2023 2:59:16 PM, Old:Abs, New:%T
X Stop nm Changed: 16/11/2023 3:21:34 PM, Old: 200.00, New: 350.00
Source changeover Changed: 16/11/2023 3:21:34 PM, Old:   350.00, New:   300.00
Detector changeover Changed: 16/11/2023 3:21:34 PM, Old:   800.00, New:  1000.00
Grating changeover Changed: 16/11/2023 3:21:34 PM, Old:   800.00, New:   900.00
Baseline Correction Changed: 16/11/2023 3:21:34 PM, Old:1, New:0
X Stop nm Changed: 16/11/2023 3:26:12 PM, Old: 350.00, New: 400.00
Detector changeover Changed: 16/11/2023 3:26:12 PM, Old:  1000.00, New:  1300.00
Grating changeover Changed: 16/11/2023 3:26:12 PM, Old:   900.00, New:   800.00
Baseline Correction Changed: 16/11/2023 3:26:12 PM, Old:0, New:1
Detector changeover Changed: 16/11/2023 3:29:35 PM, Old:  1300.00, New:  1150.00
Detector changeover Changed: 16/11/2023 3:32:18 PM, Old:  1150.00, New:  1005.00
End Method Modifications
<SBW (nm)> , 2.00
<Energy> , 3.00
<Slit height> , Full
<Current Wavelength> , 800.00
<SBW (nm)> , 2.00
<Energy> , 20.89
<Slit height> , Full
<Current Wavelength> , 400.00

FePS3,
FePS3
Collection Time: 16/11/2023 3:36:00 PM
Operator Name  :
Scan Software Version: 4.10(464)
Parameter List :
Instrument                        Cary 5000
Instrument Version                1.12
Start (nm)                        1600.00
Stop (nm)                         400.00
X Mode                            Nanometers
Y Mode                            %T
Independent NIR                   On
Measurement Mode                  Auto
UV-Vis Data Interval (nm)         2.00
UV-Vis Ave. Time (sec)            0.100
UV-Vis SBW (nm)                   2.000
NIR Scan Rate (nm/min)            1800.000
NIR Data Interval (nm)            3.00
NIR Ave. Time (sec)               0.100
NIR Energy                        3.00
Slit Height                       Full
Beam Mode                         Double
Signal-to-noise Mode              Off
UV Source                         On
Vis Source                        On
Third Source                      Off
Source Changeover (nm)            300.00
Detector Changeover (nm)          1005.00
Grating Changeover (nm)           800.00
Baseline Correction               On
Baseline Type                     Baseline correction
Baseline File Name
Baseline Std Ref File Name
Cycle Mode                        Off
Comments
Method Log     :
Method Name    :
Date/Time stamp: 16/11/2023 2:48:44 PM
Method Modifications:
X Start nm Changed: 16/11/2023 2:57:04 PM, Old: 800.00, New:1600.00
Idpt Control Changed: 16/11/2023 2:57:04 PM, Old:0, New:1
UVVIS Interval nm Changed: 16/11/2023 2:57:04 PM, Old:     1.00, New:     2.00
NIR Scan Rate nm Changed: 16/11/2023 2:57:04 PM, Old:  600.000, New: 1800.000
NIR Interval nm Changed: 16/11/2023 2:57:04 PM, Old:     1.00, New:     3.00
Baseline Correction Changed: 16/11/2023 2:57:04 PM, Old:0, New:1
Y mode Changed: 16/11/2023 2:59:16 PM, Old:Abs, New:%T
X Stop nm Changed: 16/11/2023 3:21:34 PM, Old: 200.00, New: 350.00
Source changeover Changed: 16/11/2023 3:21:34 PM, Old:   350.00, New:   300.00
Detector changeover Changed: 16/11/2023 3:21:34 PM, Old:   800.00, New:  1000.00
Grating changeover Changed: 16/11/2023 3:21:34 PM, Old:   800.00, New:   900.00
Baseline Correction Changed: 16/11/2023 3:21:34 PM, Old:1, New:0
X Stop nm Changed: 16/11/2023 3:26:12 PM, Old: 350.00, New: 400.00
Detector changeover Changed: 16/11/2023 3:26:12 PM, Old:  1000.00, New:  1300.00
Grating changeover Changed: 16/11/2023 3:26:12 PM, Old:   900.00, New:   800.00
Baseline Correction Changed: 16/11/2023 3:26:12 PM, Old:0, New:1
Detector changeover Changed: 16/11/2023 3:29:35 PM, Old:  1300.00, New:  1150.00
Detector changeover Changed: 16/11/2023 3:32:18 PM, Old:  1150.00, New:  1005.00
End Method Modifications
<SBW (nm)> , 2.00
<Energy> , 3.00
<Slit height> , Full
<Current Wavelength> , 800.00
<SBW (nm)> , 2.00
<Energy> , 20.89
<Slit height> , Full
<Current Wavelength> , 400.00

NiPS3,
NiPS3
Collection Time: 16/11/2023 3:38:44 PM
Operator Name  :
Scan Software Version: 4.10(464)
Parameter List :
Instrument                        Cary 5000
Instrument Version                1.12
Start (nm)                        1600.00
Stop (nm)                         400.00
X Mode                            Nanometers
Y Mode                            %T
Independent NIR                   On
Measurement Mode                  Auto
UV-Vis Data Interval (nm)         2.00
UV-Vis Ave. Time (sec)            0.100
UV-Vis SBW (nm)                   2.000
NIR Scan Rate (nm/min)            1800.000
NIR Data Interval (nm)            3.00
NIR Ave. Time (sec)               0.100
NIR Energy                        3.00
Slit Height                       Full
Beam Mode                         Double
Signal-to-noise Mode              Off
UV Source                         On
Vis Source                        On
Third Source                      Off
Source Changeover (nm)            300.00
Detector Changeover (nm)          1005.00
Grating Changeover (nm)           800.00
Baseline Correction               On
Baseline Type                     Baseline correction
Baseline File Name
Baseline Std Ref File Name
Cycle Mode                        Off
Comments
Method Log     :
Method Name    :
Date/Time stamp: 16/11/2023 2:48:44 PM
Method Modifications:
X Start nm Changed: 16/11/2023 2:57:04 PM, Old: 800.00, New:1600.00
Idpt Control Changed: 16/11/2023 2:57:04 PM, Old:0, New:1
UVVIS Interval nm Changed: 16/11/2023 2:57:04 PM, Old:     1.00, New:     2.00
NIR Scan Rate nm Changed: 16/11/2023 2:57:04 PM, Old:  600.000, New: 1800.000
NIR Interval nm Changed: 16/11/2023 2:57:04 PM, Old:     1.00, New:     3.00
Baseline Correction Changed: 16/11/2023 2:57:04 PM, Old:0, New:1
Y mode Changed: 16/11/2023 2:59:16 PM, Old:Abs, New:%T
X Stop nm Changed: 16/11/2023 3:21:34 PM, Old: 200.00, New: 350.00
Source changeover Changed: 16/11/2023 3:21:34 PM, Old:   350.00, New:   300.00
Detector changeover Changed: 16/11/2023 3:21:34 PM, Old:   800.00, New:  1000.00
Grating changeover Changed: 16/11/2023 3:21:34 PM, Old:   800.00, New:   900.00
Baseline Correction Changed: 16/11/2023 3:21:34 PM, Old:1, New:0
X Stop nm Changed: 16/11/2023 3:26:12 PM, Old: 350.00, New: 400.00
Detector changeover Changed: 16/11/2023 3:26:12 PM, Old:  1000.00, New:  1300.00
Grating changeover Changed: 16/11/2023 3:26:12 PM, Old:   900.00, New:   800.00
Baseline Correction Changed: 16/11/2023 3:26:12 PM, Old:0, New:1
Detector changeover Changed: 16/11/2023 3:29:35 PM, Old:  1300.00, New:  1150.00
Detector changeover Changed: 16/11/2023 3:32:18 PM, Old:  1150.00, New:  1005.00
End Method Modifications
<SBW (nm)> , 2.00
<Energy> , 3.00
<Slit height> , Full
<Current Wavelength> , 800.00
<SBW (nm)> , 2.00
<Energy> , 20.89
<Slit height> , Full
<Current Wavelength> , 400.00

CrPS4,
CrPS4
Collection Time: 16/11/2023 3:41:21 PM
Operator Name  :
Scan Software Version: 4.10(464)
Parameter List :
Instrument                        Cary 5000
Instrument Version                1.12
Start (nm)                        1600.00
Stop (nm)                         400.00
X Mode                            Nanometers
Y Mode                            %T
Independent NIR                   On
Measurement Mode                  Auto
UV-Vis Data Interval (nm)         2.00
UV-Vis Ave. Time (sec)            0.100
UV-Vis SBW (nm)                   2.000
NIR Scan Rate (nm/min)            1800.000
NIR Data Interval (nm)            3.00
NIR Ave. Time (sec)               0.100
NIR Energy                        3.00
Slit Height                       Full
Beam Mode                         Double
Signal-to-noise Mode              Off
UV Source                         On
Vis Source                        On
Third Source                      Off
Source Changeover (nm)            300.00
Detector Changeover (nm)          1005.00
Grating Changeover (nm)           800.00
Baseline Correction               On
Baseline Type                     Baseline correction
Baseline File Name
Baseline Std Ref File Name
Cycle Mode                        Off
Comments
Method Log     :
Method Name    :
Date/Time stamp: 16/11/2023 2:48:44 PM
Method Modifications:
X Start nm Changed: 16/11/2023 2:57:04 PM, Old: 800.00, New:1600.00
Idpt Control Changed: 16/11/2023 2:57:04 PM, Old:0, New:1
UVVIS Interval nm Changed: 16/11/2023 2:57:04 PM, Old:     1.00, New:     2.00
NIR Scan Rate nm Changed: 16/11/2023 2:57:04 PM, Old:  600.000, New: 1800.000
NIR Interval nm Changed: 16/11/2023 2:57:04 PM, Old:     1.00, New:     3.00
Baseline Correction Changed: 16/11/2023 2:57:04 PM, Old:0, New:1
Y mode Changed: 16/11/2023 2:59:16 PM, Old:Abs, New:%T
X Stop nm Changed: 16/11/2023 3:21:34 PM, Old: 200.00, New: 350.00
Source changeover Changed: 16/11/2023 3:21:34 PM, Old:   350.00, New:   300.00
Detector changeover Changed: 16/11/2023 3:21:34 PM, Old:   800.00, New:  1000.00
Grating changeover Changed: 16/11/2023 3:21:34 PM, Old:   800.00, New:   900.00
Baseline Correction Changed: 16/11/2023 3:21:34 PM, Old:1, New:0
X Stop nm Changed: 16/11/2023 3:26:12 PM, Old: 350.00, New: 400.00
Detector changeover Changed: 16/11/2023 3:26:12 PM, Old:  1000.00, New:  1300.00
Grating changeover Changed: 16/11/2023 3:26:12 PM, Old:   900.00, New:   800.00
Baseline Correction Changed: 16/11/2023 3:26:12 PM, Old:0, New:1
Detector changeover Changed: 16/11/2023 3:29:35 PM, Old:  1300.00, New:  1150.00
Detector changeover Changed: 16/11/2023 3:32:18 PM, Old:  1150.00, New:  1005.00
End Method Modifications
<SBW (nm)> , 2.00
<Energy> , 3.00
<Slit height> , Full
<Current Wavelength> , 800.00
<SBW (nm)> , 2.00
<Energy> , 20.89
<Slit height> , Full
<Current Wavelength> , 400.00

MnPS3,
MnPS3
Collection Time: 16/11/2023 3:44:12 PM
Operator Name  :
Scan Software Version: 4.10(464)
Parameter List :
Instrument                        Cary 5000
Instrument Version                1.12
Start (nm)                        1600.00
Stop (nm)                         400.00
X Mode                            Nanometers
Y Mode                            %T
Independent NIR                   On
Measurement Mode                  Auto
UV-Vis Data Interval (nm)         2.00
UV-Vis Ave. Time (sec)            0.100
UV-Vis SBW (nm)                   2.000
NIR Scan Rate (nm/min)            1800.000
NIR Data Interval (nm)            3.00
NIR Ave. Time (sec)               0.100
NIR Energy                        3.00
Slit Height                       Full
Beam Mode                         Double
Signal-to-noise Mode              Off
UV Source                         On
Vis Source                        On
Third Source                      Off
Source Changeover (nm)            300.00
Detector Changeover (nm)          1005.00
Grating Changeover (nm)           800.00
Baseline Correction               On
Baseline Type                     Baseline correction
Baseline File Name
Baseline Std Ref File Name
Cycle Mode                        Off
Comments
Method Log     :
Method Name    :
Date/Time stamp: 16/11/2023 2:48:44 PM
Method Modifications:
X Start nm Changed: 16/11/2023 2:57:04 PM, Old: 800.00, New:1600.00
Idpt Control Changed: 16/11/2023 2:57:04 PM, Old:0, New:1
UVVIS Interval nm Changed: 16/11/2023 2:57:04 PM, Old:     1.00, New:     2.00
NIR Scan Rate nm Changed: 16/11/2023 2:57:04 PM, Old:  600.000, New: 1800.000
NIR Interval nm Changed: 16/11/2023 2:57:04 PM, Old:     1.00, New:     3.00
Baseline Correction Changed: 16/11/2023 2:57:04 PM, Old:0, New:1
Y mode Changed: 16/11/2023 2:59:16 PM, Old:Abs, New:%T
X Stop nm Changed: 16/11/2023 3:21:34 PM, Old: 200.00, New: 350.00
Source changeover Changed: 16/11/2023 3:21:34 PM, Old:   350.00, New:   300.00
Detector changeover Changed: 16/11/2023 3:21:34 PM, Old:   800.00, New:  1000.00
Grating changeover Changed: 16/11/2023 3:21:34 PM, Old:   800.00, New:   900.00
Baseline Correction Changed: 16/11/2023 3:21:34 PM, Old:1, New:0
X Stop nm Changed: 16/11/2023 3:26:12 PM, Old: 350.00, New: 400.00
Detector changeover Changed: 16/11/2023 3:26:12 PM, Old:  1000.00, New:  1300.00
Grating changeover Changed: 16/11/2023 3:26:12 PM, Old:   900.00, New:   800.00
Baseline Correction Changed: 16/11/2023 3:26:12 PM, Old:0, New:1
Detector changeover Changed: 16/11/2023 3:29:35 PM, Old:  1300.00, New:  1150.00
Detector changeover Changed: 16/11/2023 3:32:18 PM, Old:  1150.00, New:  1005.00
End Method Modifications
<SBW (nm)> , 2.00
<Energy> , 3.00
<Slit height> , Full
<Current Wavelength> , 800.00
<SBW (nm)> , 2.00
<Energy> , 20.89
<Slit height> , Full
<Current Wavelength> , 400.00

Hole,
Hole
Collection Time: 16/11/2023 3:46:46 PM
Operator Name  :
Scan Software Version: 4.10(464)
Parameter List :
Instrument                        Cary 5000
Instrument Version                1.12
Start (nm)                        1600.00
Stop (nm)                         400.00
X Mode                            Nanometers
Y Mode                            %T
Independent NIR                   On
Measurement Mode                  Auto
UV-Vis Data Interval (nm)         2.00
UV-Vis Ave. Time (sec)            0.100
UV-Vis SBW (nm)                   2.000
NIR Scan Rate (nm/min)            1800.000
NIR Data Interval (nm)            3.00
NIR Ave. Time (sec)               0.100
NIR Energy                        3.00
Slit Height                       Full
Beam Mode                         Double
Signal-to-noise Mode              Off
UV Source                         On
Vis Source                        On
Third Source                      Off
Source Changeover (nm)            300.00
Detector Changeover (nm)          1005.00
Grating Changeover (nm)           800.00
Baseline Correction               On
Baseline Type                     Baseline correction
Baseline File Name
Baseline Std Ref File Name
Cycle Mode                        Off
Comments
Method Log     :
Method Name    :
Date/Time stamp: 16/11/2023 2:48:44 PM
Method Modifications:
X Start nm Changed: 16/11/2023 2:57:04 PM, Old: 800.00, New:1600.00
Idpt Control Changed: 16/11/2023 2:57:04 PM, Old:0, New:1
UVVIS Interval nm Changed: 16/11/2023 2:57:04 PM, Old:     1.00, New:     2.00
NIR Scan Rate nm Changed: 16/11/2023 2:57:04 PM, Old:  600.000, New: 1800.000
NIR Interval nm Changed: 16/11/2023 2:57:04 PM, Old:     1.00, New:     3.00
Baseline Correction Changed: 16/11/2023 2:57:04 PM, Old:0, New:1
Y mode Changed: 16/11/2023 2:59:16 PM, Old:Abs, New:%T
X Stop nm Changed: 16/11/2023 3:21:34 PM, Old: 200.00, New: 350.00
Source changeover Changed: 16/11/2023 3:21:34 PM, Old:   350.00, New:   300.00
Detector changeover Changed: 16/11/2023 3:21:34 PM, Old:   800.00, New:  1000.00
Grating changeover Changed: 16/11/2023 3:21:34 PM, Old:   800.00, New:   900.00
Baseline Correction Changed: 16/11/2023 3:21:34 PM, Old:1, New:0
X Stop nm Changed: 16/11/2023 3:26:12 PM, Old: 350.00, New: 400.00
Detector changeover Changed: 16/11/2023 3:26:12 PM, Old:  1000.00, New:  1300.00
Grating changeover Changed: 16/11/2023 3:26:12 PM, Old:   900.00, New:   800.00
Baseline Correction Changed: 16/11/2023 3:26:12 PM, Old:0, New:1
Detector changeover Changed: 16/11/2023 3:29:35 PM, Old:  1300.00, New:  1150.00
Detector changeover Changed: 16/11/2023 3:32:18 PM, Old:  1150.00, New:  1005.00
End Method Modifications
<SBW (nm)> , 2.00
<Energy> , 3.00
<Slit height> , Full
<Current Wavelength> , 800.00
<SBW (nm)> , 2.00
<Energy> , 20.89
<Slit height> , Full
<Current Wavelength> , 400.00

