FePS3,,NiPS3,,CrPS4,,MnPS3,,Hole,,
Wavelength (nm),%T,Wavelength (nm),%T,Wavelength (nm),%T,Wavelength (nm),%T,Wavelength (nm),%T,
2000,8.876047134,2000,12.7833004,2000,7.426570415,2000,8.256180763,2000,12.24920273,
1998,8.878709793,1998,12.69124317,1998,7.473973751,1998,8.331508636,1998,12.23943138,
1996,8.809670448,1996,12.7401619,1996,7.402882576,1996,8.39390564,1996,12.22500801,
1994,8.72190094,1994,12.71062374,1994,7.338119984,1994,8.370063782,1994,12.21422672,
1992,8.72911644,1992,12.84457397,1992,7.322885036,1992,8.347934723,1992,12.23588371,
1990,8.776946068,1990,12.86397552,1990,7.348259449,1990,8.239778519,1990,12.25216866,
1988,8.90815258,1988,12.88460159,1988,7.396053314,1988,8.305256844,1988,12.24201298,
1986,8.924975395,1986,12.81343365,1986,7.471713543,1986,8.285657883,1986,12.25397682,
1984,8.926399231,1984,12.7076149,1984,7.488874912,1984,8.369338989,1984,12.25915241,
1982,8.882184982,1982,12.71418476,1982,7.421434879,1982,8.389657974,1982,12.26744556,
1980,8.770327568,1980,12.72970104,1980,7.3507061,1980,8.359150887,1980,12.24899387,
1978,8.784435272,1978,12.82323265,1978,7.329498291,1978,8.317865372,1978,12.24283028,
1976,8.822689056,1976,12.90274143,1976,7.381649971,1976,8.207349777,1976,12.26062298,
1974,8.958957672,1974,12.95190334,1974,7.401434422,1974,8.254796982,1974,12.28489685,
1972,8.978756905,1972,12.86753845,1972,7.504220963,1972,8.222255707,1972,12.30480194,
1970,8.976137161,1970,12.76539421,1970,7.463137627,1970,8.348668098,1970,12.28849697,
1968,8.943058968,1968,12.75408554,1968,7.455358505,1968,8.37884903,1968,12.29043579,
1966,8.82552433,1966,12.78448868,1966,7.373017788,1966,8.402447701,1966,12.29273605,
1964,8.843079567,1964,12.86065388,1964,7.348177433,1964,8.386926651,1964,12.30355072,
1962,8.860062599,1962,13.00068188,1962,7.387629986,1962,8.343482971,1962,12.30496693,
1960,9.003389359,1960,12.96319103,1960,7.387571812,1960,8.388149261,1960,12.30454826,
1958,9.02857399,1958,12.8849535,1958,7.51887846,1958,8.372218132,1958,12.32968521,
1956,9.029165268,1956,12.7592144,1956,7.446964264,1956,8.444849014,1956,12.34203148,
1954,9.007844925,1954,12.75185394,1954,7.466770649,1954,8.46360302,1954,12.32725811,
1952,8.882241249,1952,12.78574944,1952,7.362785339,1952,8.487884521,1952,12.30726624,
1950,8.901085854,1950,12.83650112,1950,7.372921944,1950,8.412042618,1950,12.31057262,
1948,8.917479515,1948,13.0017643,1948,7.385627747,1948,8.328804016,1948,12.3314724,
1946,9.053893089,1946,12.90959549,1946,7.364143372,1946,8.293944359,1946,12.33477211,
1944,9.081727982,1944,12.90755272,1944,7.496319771,1944,8.300117493,1944,12.34728813,
1942,9.096281052,1942,12.78462887,1942,7.458726406,1942,8.30798912,1942,12.34667301,
1940,9.098330498,1940,12.77724648,1940,7.486964226,1940,8.371372223,1940,12.36171532,
1938,8.956212044,1938,12.77294922,1938,7.329030991,1938,8.379617691,1938,12.35419846,
1936,8.947277069,1936,12.82504177,1936,7.351995945,1936,8.361784935,1936,12.33756542,
1934,8.970179558,1934,13.03220558,1934,7.353642464,1934,8.320368767,1934,12.34829426,
1932,9.13312912,1932,12.92166424,1932,7.384995937,1932,8.30324173,1932,12.39594269,
1930,9.168646812,1930,12.96037483,1930,7.490660191,1930,8.367125511,1930,12.39983559,
1928,9.141448021,1928,12.77258682,1928,7.457640648,1928,8.375545502,1928,12.3720789,
1926,9.160383224,1926,12.83822918,1926,7.499256134,1926,8.523487091,1926,12.39029789,
1924,9.036619186,1924,12.81231689,1924,7.356907368,1924,8.477789879,1924,12.39467144,
1922,9.015123367,1922,12.84003067,1922,7.367596149,1922,8.453401566,1922,12.38045979,
1920,8.990732193,1920,12.99473476,1920,7.326262474,1920,8.353954315,1920,12.36890507,
1918,9.147473335,1918,12.97747517,1918,7.403416157,1918,8.34585762,1918,12.40532207,
1916,9.237968445,1916,13.05925655,1916,7.52247715,1916,8.396840096,1916,12.44487667,
1914,9.213910103,1914,12.95036983,1914,7.549859524,1914,8.398278236,1914,12.44518852,
1912,9.188743591,1912,13.04773712,1912,7.539566517,1912,8.581347466,1912,12.44005489,
1910,9.047076225,1910,13.07687759,1910,7.4639678,1910,8.531272888,1910,12.446064,
1908,9.04387188,1908,13.1346674,1908,7.464203358,1908,8.526732445,1908,12.42573261,
1906,9.018014908,1906,13.2949295,1906,7.424195766,1906,8.407797813,1906,12.4320631,
1904,9.111192703,1904,13.3239851,1904,7.483994007,1904,8.435301781,1904,12.46039486,
1902,9.183905602,1902,13.32381535,1902,7.562151432,1902,8.458857536,1902,12.48783588,
1900,9.201678276,1900,13.1967392,1900,7.629663467,1900,8.48977375,1900,12.49969673,
1898,9.162242889,1898,13.2563982,1898,7.592749596,1898,8.639625549,1898,12.49191952,
1896,9.000716209,1896,13.2128582,1896,7.509114742,1896,8.542764664,1896,12.47806072,
1894,8.995976448,1894,13.15937233,1894,7.41873312,1894,8.548207283,1894,12.45884895,
1892,9.002196312,1892,13.16636086,1892,7.374083996,1892,8.345583916,1892,12.43099213,
1890,9.019676208,1890,12.84865761,1890,7.228782654,1890,8.216222763,1890,12.38208199,
1888,8.986353874,1888,12.27811241,1888,6.946358681,1888,7.882661343,1888,12.32930565,
1886,8.920038223,1886,11.74404716,1886,6.751019478,1886,7.705991745,1886,12.21620941,
1884,8.89887619,1884,11.65072536,1884,6.6798172,1884,7.794735432,1884,12.16764164,
1882,8.815540314,1882,11.74286747,1882,6.691230774,1882,7.749537468,1882,12.19036102,
1880,8.803005219,1880,11.93133163,1880,6.666259289,1880,7.868335247,1880,12.19824696,
1878,8.952597618,1878,12.4812479,1878,6.932607174,1878,8.006008148,1878,12.30963802,
1876,9.135162354,1876,12.90434933,1876,7.197526932,1876,8.270291328,1876,12.40079117,
1874,9.286002159,1874,13.0690794,1874,7.446529865,1874,8.337049484,1874,12.46647739,
1872,9.31554985,1872,13.07782841,1872,7.509011745,1872,8.420131683,1872,12.54319668,
1870,9.321761131,1870,13.17698765,1870,7.578855515,1870,8.568228722,1870,12.55169678,
1868,9.163092613,1868,13.32464218,1868,7.562476158,1868,8.623734474,1868,12.52173519,
1866,9.095968246,1866,13.26085663,1866,7.431042194,1866,8.566339493,1866,12.51725292,
1864,9.078005791,1864,13.34927273,1864,7.454527378,1864,8.447120667,1864,12.51428604,
1862,9.09970665,1862,13.24643517,1862,7.339813709,1862,8.363555908,1862,12.47277355,
1860,9.093724251,1860,12.66616726,1860,7.114850044,1860,8.048111916,1860,12.42775726,
1858,8.961416245,1858,12.05110741,1858,6.803835869,1858,7.752838135,1858,12.32126522,
1856,8.826170921,1856,11.502738,1856,6.573478699,1856,7.600716591,1856,12.15825081,
1854,8.695576668,1854,11.34690094,1854,6.403531075,1854,7.561732292,1854,12.1034708,
1852,8.650707245,1852,11.2458744,1852,6.339114189,1852,7.500105858,1852,12.10527229,
1850,8.637410164,1850,11.43677998,1850,6.335739136,1850,7.434339046,1850,12.09352589,
1848,8.706390381,1848,11.46786213,1848,6.322219849,1848,7.396177769,1848,12.12231827,
1846,8.798646927,1846,11.57347584,1846,6.44607687,1846,7.457704067,1846,12.12068272,
1844,8.767353058,1844,11.46303749,1844,6.416436195,1844,7.40499115,1844,12.08625984,
1842,8.800255775,1842,11.33281994,1842,6.441990376,1842,7.458954811,1842,12.14939308,
1840,8.70922184,1840,11.43563461,1840,6.407860756,1840,7.489771366,1840,12.11233425,
1838,8.580571175,1838,11.31139565,1838,6.315568924,1838,7.390045166,1838,12.06710815,
1836,8.563015938,1836,11.2428503,1836,6.214851379,1836,7.255045414,1836,12.10113335,
1834,8.50157547,1834,11.00523567,1834,6.081782341,1834,7.077137947,1834,11.9927454,
1832,8.521986961,1832,10.65080547,1832,5.963699341,1832,6.986611366,1832,11.9568367,
1830,8.478520393,1830,10.26206875,1830,5.865382195,1830,6.883756161,1830,11.89966774,
1828,8.372325897,1828,9.777175903,1828,5.702014923,1828,6.778636456,1828,11.78710651,
1826,8.312717438,1826,9.459737778,1826,5.552918911,1826,6.641582966,1826,11.80099678,
1824,8.239391327,1824,9.157196999,1824,5.462198257,1824,6.548270702,1824,11.7736311,
1822,8.202870369,1822,8.968419075,1822,5.362259388,1822,6.441187859,1822,11.73988914,
1820,8.215335846,1820,8.782108307,1820,5.319243431,1820,6.358476162,1820,11.74877834,
1818,8.260707855,1818,8.55483532,1818,5.258098125,1818,6.294246674,1818,11.73566628,
1816,8.29254055,1816,8.339130402,1816,5.226806164,1816,6.257026672,1816,11.71551323,
1814,8.267553329,1814,8.131533623,1814,5.183470726,1814,6.20422554,1814,11.64291382,
1812,8.236577034,1812,7.956078053,1812,5.14324379,1812,6.128619194,1812,11.64139748,
1810,8.224984169,1810,7.8802495,1810,5.176652908,1810,6.130042076,1810,11.70636082,
1808,8.209526062,1808,7.78624773,1808,5.17628336,1808,6.131081104,1808,11.69486427,
1806,8.221404076,1806,7.713760376,1806,5.169414997,1806,6.147744656,1806,11.69978333,
1804,8.275304794,1804,7.63604784,1804,5.158324718,1804,6.142458916,1804,11.70119762,
1802,8.288009644,1802,7.572123528,1802,5.124914169,1802,6.142236233,1802,11.66339779,
1800,8.288728714,1800,7.541386604,1800,5.126289845,1800,6.114178181,1800,11.63296223,
1798,8.273068428,1798,7.508777142,1798,5.121991634,1798,6.08702755,1798,11.6313982,
1796,8.224375725,1796,7.497083187,1796,5.157635689,1796,6.069108009,1796,11.66187191,
1794,8.219708443,1794,7.459990025,1794,5.165535927,1794,6.079785347,1794,11.68381596,
1792,8.234965324,1792,7.43530035,1792,5.165982246,1792,6.104997635,1792,11.69281673,
1790,8.289216042,1790,7.420003414,1790,5.169232368,1790,6.140332699,1790,11.69684696,
1788,8.303770065,1788,7.421215534,1788,5.13155365,1788,6.15436697,1788,11.66753101,
1786,8.306993484,1786,7.441018581,1786,5.134088993,1786,6.166382313,1786,11.63997841,
1784,8.301947594,1784,7.455125332,1784,5.13701582,1784,6.161253452,1784,11.64493179,
1782,8.252774239,1782,7.452588558,1782,5.174021721,1782,6.169500351,1782,11.6665287,
1780,8.24973774,1780,7.441376686,1780,5.182883739,1780,6.175387859,1780,11.69690132,
1778,8.257329941,1778,7.411147594,1778,5.184453011,1778,6.189371109,1778,11.70458794,
1776,8.310869217,1776,7.413791656,1776,5.191039562,1776,6.176439762,1776,11.7153883,
1774,8.33182621,1774,7.427673817,1774,5.157802105,1774,6.149600983,1774,11.69409561,
1772,8.326958656,1772,7.456469536,1772,5.156851292,1772,6.111648083,1772,11.65525818,
1770,8.315023422,1770,7.464418411,1770,5.151288033,1770,6.058598518,1770,11.6498251,
1768,8.25464344,1768,7.446672916,1768,5.177161694,1768,6.043501854,1768,11.66281605,
1766,8.243000031,1766,7.43675518,1766,5.182572365,1766,6.058588028,1766,11.69967175,
1764,8.243811607,1764,7.38973856,1764,5.182340145,1764,6.111452579,1764,11.70367908,
1762,8.278553963,1762,7.377254963,1762,5.173563004,1762,6.151061535,1762,11.70415592,
1760,8.292931557,1760,7.361792088,1760,5.128121853,1760,6.170167923,1760,11.67827702,
1758,8.293494225,1758,7.384133339,1758,5.119570732,1758,6.182310581,1758,11.64579582,
1756,8.293901443,1756,7.406280041,1756,5.118259907,1756,6.156463146,1756,11.64848232,
1754,8.24104023,1754,7.404107571,1754,5.149119854,1754,6.155285835,1754,11.65765953,
1752,8.22734642,1752,7.407903671,1752,5.157816887,1752,6.133805752,1752,11.68251038,
1750,8.22490406,1750,7.350035667,1750,5.157580853,1750,6.125628948,1750,11.67188168,
1748,8.258340836,1748,7.349418163,1748,5.146334648,1748,6.098379612,1748,11.65716171,
1746,8.281376839,1746,7.350426674,1746,5.116640568,1746,6.064185143,1746,11.62772369,
1744,8.279513359,1744,7.392558575,1744,5.103492737,1744,6.049716473,1744,11.57678699,
1742,8.271784782,1742,7.409657478,1742,5.103995323,1742,6.015530586,1742,11.55855751,
1740,8.210679054,1740,7.407774925,1740,5.121234894,1740,6.030446529,1740,11.5329895,
1738,8.175825119,1738,7.389719963,1738,5.122313023,1738,6.040693283,1738,11.52031612,
1736,8.144683838,1736,7.312496185,1736,5.106509686,1736,6.073318958,1736,11.49705982,
1734,8.149074554,1734,7.27072525,1734,5.082406521,1734,6.084957123,1734,11.48535633,
1732,8.159433365,1732,7.237792015,1732,5.040052414,1732,6.085587978,1732,11.46917629,
1730,8.151348114,1730,7.246418476,1730,5.013911247,1730,6.078489304,1730,11.43315697,
1728,8.140986443,1728,7.23708868,1728,5.001904964,1728,6.027253151,1728,11.4409008,
1726,8.090697289,1726,7.22393322,1726,5.012660503,1726,6.00279808,1726,11.47648907,
1724,8.090941429,1724,7.218235016,1724,5.040311813,1724,5.992848873,1724,11.55953121,
1722,8.115902901,1722,7.186484337,1722,5.050065517,1722,6.018629551,1722,11.60451221,
1720,8.164710999,1720,7.198698044,1720,5.061254025,1720,6.031214237,1720,11.62278938,
1718,8.206154823,1718,7.209244251,1718,5.036959171,1718,6.035401344,1718,11.62055302,
1716,8.211467743,1716,7.252491951,1716,5.023365974,1716,6.02631855,1716,11.5813179,
1714,8.207677841,1714,7.27385664,1714,5.029710293,1714,5.989165783,1714,11.57437897,
1712,8.165517807,1712,7.285368443,1712,5.047674656,1712,5.981459618,1712,11.58460522,
1710,8.138771057,1710,7.276903629,1710,5.074110508,1710,5.979462147,1710,11.63208961,
1708,8.141866684,1708,7.239881992,1708,5.074571609,1708,6.008832932,1708,11.64361954,
1706,8.17056179,1706,7.221719742,1706,5.080085754,1706,6.034805775,1706,11.63845634,
1704,8.207262039,1704,7.229625225,1704,5.050693512,1704,6.049289227,1704,11.63940334,
1702,8.210338593,1702,7.259548664,1702,5.036314011,1702,6.061834335,1702,11.59638691,
1700,8.204277039,1700,7.285283566,1700,5.039494991,1700,6.057360172,1700,11.5792017,
1698,8.165899277,1698,7.293196678,1698,5.059232712,1698,6.063285828,1698,11.58253956,
1696,8.137852669,1696,7.286421776,1696,5.083929539,1696,6.064981937,1696,11.62446404,
1694,8.12771225,1694,7.250333786,1694,5.086288452,1694,6.078260899,1694,11.62567902,
1692,8.151101112,1692,7.228106499,1692,5.09100914,1692,6.06916523,1692,11.6228323,
1690,8.193739891,1690,7.231084347,1690,5.070728302,1690,6.024599075,1690,11.63152122,
1688,8.189898491,1688,7.250705242,1688,5.053765774,1688,5.982156277,1688,11.58079624,
1686,8.181245804,1686,7.283725739,1686,5.05281353,1686,5.92718029,1686,11.56463814,
1684,8.150434494,1684,7.277190685,1684,5.068390846,1684,5.89396143,1684,11.58427143,
1682,8.115510941,1682,7.27867651,1682,5.098945618,1682,5.902183056,1682,11.62099361,
1680,8.110182762,1680,7.241462231,1680,5.107470512,1680,5.955130577,1680,11.62856102,
1678,8.130369186,1678,7.219041824,1678,5.112967014,1678,6.021710396,1678,11.64614773,
1676,8.175374985,1676,7.21877718,1676,5.095574379,1676,6.063337803,1676,11.64893246,
1674,8.172451019,1674,7.23696804,1674,5.081626415,1674,6.108309269,1674,11.58843422,
1672,8.170955658,1672,7.280563354,1672,5.082634926,1672,6.091295242,1672,11.58697033,
1670,8.141832352,1670,7.270917892,1670,5.095243931,1670,6.061415195,1670,11.59699535,
1668,8.097432137,1668,7.27753067,1668,5.128316402,1668,6.034941673,1668,11.61524677,
1666,8.095498085,1666,7.235940456,1666,5.137234688,1666,6.005705357,1666,11.64411449,
1664,8.112480164,1664,7.207101822,1664,5.137626648,1664,5.984342098,1664,11.66265202,
1662,8.156644821,1662,7.208654881,1662,5.127938271,1662,5.950657845,1662,11.6488657,
1660,8.159406662,1660,7.227157116,1660,5.103226185,1660,5.945273876,1660,11.61248684,
1658,8.160459518,1658,7.26911211,1658,5.10323143,1658,5.915343761,1658,11.61731339,
1656,8.13331604,1656,7.271476269,1656,5.119930744,1656,5.925548553,1656,11.60843658,
1654,8.090858459,1654,7.27954483,1654,5.150128365,1654,5.957230568,1654,11.6456728,
1652,8.091179848,1652,7.237015724,1652,5.157156944,1652,5.999598026,1652,11.69288445,
1650,8.100657463,1650,7.210609436,1650,5.158308983,1650,6.047915936,1650,11.69054317,
1648,8.145672798,1648,7.205299377,1648,5.150119305,1648,6.049305916,1648,11.68506336,
1646,8.153427124,1646,7.227467537,1646,5.115926266,1646,6.043404102,1646,11.66218472,
1644,8.152237892,1644,7.274548531,1644,5.118206501,1644,5.998754025,1644,11.64910603,
1642,8.134640694,1642,7.286201477,1642,5.127116203,1642,5.976499081,1642,11.64623833,
1640,8.090333939,1640,7.285291672,1640,5.15955925,1640,5.957401752,1640,11.69255257,
1638,8.085942268,1638,7.249478817,1638,5.169516087,1638,5.974530697,1638,11.72174549,
1636,8.08926487,1636,7.215270519,1636,5.171938896,1636,6.003045082,1636,11.71817303,
1634,8.142239571,1634,7.208434582,1634,5.162136078,1634,5.994375229,1634,11.7437315,
1632,8.151120186,1632,7.234112263,1632,5.123564243,1632,5.974045277,1632,11.70590782,
1630,8.150538445,1630,7.28991127,1630,5.13293457,1630,5.927799225,1630,11.67805576,
1628,8.137104988,1628,7.304003716,1628,5.130672932,1628,5.875459671,1628,11.70690441,
1626,8.085133553,1626,7.301437855,1626,5.170706749,1626,5.859164715,1626,11.73173809,
1624,8.07779026,1624,7.281543255,1624,5.184967518,1624,5.888348579,1624,11.76116753,
1622,8.089780807,1622,7.225253582,1622,5.182570457,1622,5.944321156,1622,11.7850914,
1620,8.132659912,1620,7.229490757,1620,5.181483269,1620,6.000497818,1620,11.78983116,
1618,8.144562721,1618,7.248669147,1618,5.142612457,1618,6.040885925,1618,11.76094627,
1616,8.152822495,1616,7.312259674,1616,5.145656109,1616,6.048387527,1616,11.75946331,
1614,8.138469696,1614,7.337317467,1614,5.14759922,1614,6.006228447,1614,11.75960064,
1612,8.082001686,1612,7.327860832,1612,5.194527149,1612,5.977566719,1612,11.78455544,
1610,8.083926201,1610,7.319527149,1610,5.205118656,1610,5.928285599,1610,11.84759903,
1608,8.084083557,1608,7.252563,1608,5.211954117,1608,5.901159286,1608,11.84712982,
1606,8.130293846,1606,7.260049343,1606,5.211256981,1606,5.868400574,1606,11.85605431,
1604,8.151098251,1604,7.275315285,1604,5.167215347,1604,5.83571291,1604,11.8533926,
1602,8.150722504,1602,7.354872704,1602,5.171201706,1602,5.83627224,1602,11.82070446,
1600,8.14085865,1600,7.367732525,1600,5.178314209,1600,5.816988945,1600,11.82410336,
1598,8.082899094,1598,7.368903637,1598,5.226320267,1598,5.875561237,1598,11.87296772,
1596,8.07869339,1596,7.366088867,1596,5.23868227,1596,5.936954498,1596,11.90733624,
1594,8.079231262,1594,7.26943779,1594,5.248482704,1594,6.031661034,1594,11.92126942,
1592,8.129793167,1592,7.29126358,1592,5.241914272,1592,6.039200783,1592,11.94769955,
1590,8.145855904,1590,7.299899101,1590,5.204677105,1590,6.020338535,1590,11.9175272,
1588,8.148426056,1588,7.382219315,1588,5.197463036,1588,5.965354443,1588,11.90408802,
1586,8.147932053,1586,7.40081358,1586,5.207208157,1586,5.863118649,1586,11.92010593,
1584,8.082510948,1584,7.407830715,1584,5.248842239,1584,5.840493202,1584,11.93365955,
1582,8.077198982,1582,7.39436245,1582,5.270391464,1582,5.824534893,1582,12.00100422,
1580,8.077745438,1580,7.304079056,1580,5.272341728,1580,5.889192104,1580,12.0228157,
1578,8.122587204,1578,7.315019608,1578,5.268790722,1578,5.905071735,1578,12.02280331,
1576,8.149118423,1576,7.3236413,1576,5.220827579,1576,5.91569519,1576,12.0206461,
1574,8.148031235,1574,7.41847229,1574,5.203775883,1574,5.898439407,1574,11.99285507,
1572,8.143893242,1572,7.425848961,1572,5.218835831,1572,5.84580946,1572,11.9970026,
1570,8.08228302,1570,7.438575268,1570,5.242205143,1570,5.856298447,1570,12.03931713,
1568,8.062291145,1568,7.421826363,1568,5.271527767,1568,5.877940178,1568,12.08427143,
1566,8.062912941,1566,7.322686195,1566,5.26954031,1566,5.969582081,1566,12.10800076,
1564,8.114587784,1564,7.330875874,1564,5.263245583,1564,5.986180305,1564,12.13014698,
1562,8.140058517,1562,7.334815502,1562,5.209425926,1562,5.996889114,1562,12.11018467,
1560,8.147497177,1560,7.415669441,1560,5.19078064,1560,5.951823711,1560,12.08645821,
1558,8.145095825,1558,7.435888767,1558,5.193211555,1558,5.860235691,1558,12.10001183,
1556,8.074819565,1556,7.448607445,1556,5.221222878,1556,5.800115585,1556,12.11173153,
1554,8.056117058,1554,7.433614731,1554,5.26127243,1554,5.760337353,1554,12.18812943,
1552,8.057909012,1552,7.336598396,1552,5.246053219,1552,5.784098625,1552,12.21077538,
1550,8.10158062,1550,7.323426723,1550,5.251571178,1550,5.815556526,1550,12.21236324,
1548,8.141317368,1548,7.332627296,1548,5.190261841,1548,5.871511936,1548,12.22230721,
1546,8.137012482,1546,7.404745579,1546,5.165118694,1546,5.926408768,1546,12.17368507,
1544,8.134339333,1544,7.445658207,1544,5.167261124,1544,5.939234257,1544,12.17738914,
1542,8.073691368,1542,7.435807705,1542,5.197365761,1542,5.949645996,1542,12.21409988,
1540,8.040190697,1540,7.420952797,1540,5.240753651,1540,5.950395107,1540,12.26548672,
1538,8.036538124,1538,7.31710434,1538,5.228860378,1538,5.936464787,1538,12.30153561,
1536,8.081064224,1536,7.283035755,1536,5.236865044,1536,5.895696163,1536,12.31965542,
1534,8.125865936,1534,7.292904854,1534,5.170735359,1534,5.828287125,1534,12.3117218,
1532,8.125378609,1532,7.350794315,1532,5.154694557,1532,5.798167229,1532,12.2753334,
1530,8.120470047,1530,7.412090302,1530,5.147304535,1530,5.748535156,1530,12.28320408,
1528,8.060572624,1528,7.392868519,1528,5.18662262,1528,5.769791126,1528,12.29857922,
1526,8.02850914,1526,7.399499416,1526,5.234934807,1526,5.836550236,1526,12.38401413,
1524,8.025390625,1524,7.272667408,1524,5.231763363,1524,5.926832676,1524,12.40293121,
1522,8.061886787,1522,7.239649296,1522,5.236061573,1522,5.994004726,1522,12.43372917,
1520,8.119589806,1520,7.243348122,1520,5.179339886,1520,5.966630459,1520,12.44172764,
1518,8.113554001,1518,7.296955585,1518,5.158815384,1518,5.953738689,1518,12.37380791,
1516,8.110432625,1516,7.371049404,1516,5.149497986,1516,5.846191406,1516,12.39503002,
1514,8.053609848,1514,7.347407818,1514,5.191784859,1514,5.809149742,1514,12.40752697,
1512,8.009874344,1512,7.339213848,1512,5.232810497,1512,5.810716152,1512,12.48609161,
1510,8.004764557,1510,7.216717243,1510,5.241166592,1510,5.850876331,1510,12.52479076,
1508,8.032640457,1508,7.190146446,1508,5.236769676,1508,5.901097298,1508,12.53317738,
1506,8.098946571,1506,7.167606831,1506,5.192707062,1506,5.872027397,1506,12.54829884,
1504,8.092746735,1504,7.220960617,1504,5.151482105,1504,5.874958038,1504,12.48079014,
1502,8.092263222,1502,7.289120674,1502,5.14598608,1502,5.794117451,1502,12.47924519,
1500,8.042534828,1500,7.272014618,1500,5.174571037,1500,5.812128067,1500,12.5074358,
1498,7.982855797,1498,7.272470951,1498,5.225249767,1498,5.841930389,1498,12.5766964,
1496,7.979823112,1496,7.164668083,1496,5.242857933,1496,5.915529251,1496,12.62866211,
1494,7.997797966,1494,7.114253998,1494,5.220601559,1494,5.972436428,1494,12.63580894,
1492,8.069789886,1492,7.093129158,1492,5.192910671,1492,5.948522091,1492,12.63155174,
1490,8.070896149,1490,7.138447285,1490,5.129972458,1490,5.908552647,1490,12.58020115,
1488,8.05795002,1488,7.220119953,1488,5.121959209,1488,5.777526855,1488,12.56356812,
1486,8.017755508,1486,7.215967655,1486,5.143117905,1486,5.733967304,1486,12.59793758,
1484,7.940685749,1484,7.207037449,1484,5.212275505,1484,5.72179985,1484,12.65531635,
1482,7.933199406,1482,7.117488384,1482,5.224448681,1482,5.80099535,1482,12.69907379,
1480,7.95149374,1480,7.036301613,1480,5.207728863,1480,5.898816109,1480,12.71799374,
1478,8.018648148,1478,7.008631706,1478,5.178852558,1478,5.96057272,1478,12.70654774,
1476,8.027963638,1476,7.064044476,1476,5.101495743,1476,5.977848053,1476,12.65524197,
1474,8.021298409,1474,7.159851551,1474,5.124430656,1474,5.918187618,1474,12.6485405,
1472,7.968636513,1472,7.164716721,1472,5.128064632,1472,5.829045296,1472,12.64282131,
1470,7.880989552,1470,7.135613918,1470,5.206570625,1470,5.760427475,1470,12.70894814,
1468,7.867133617,1468,7.060919762,1468,5.202269077,1468,5.760131836,1468,12.74465179,
1466,7.885211945,1466,6.955181122,1466,5.201945305,1466,5.817478657,1466,12.77570152,
1464,7.967004776,1464,6.944885254,1464,5.184244156,1464,5.861122131,1464,12.78477859,
1462,7.969473839,1462,6.996956348,1462,5.10132122,1462,5.870528221,1462,12.71824646,
1460,7.962176323,1460,7.097084045,1460,5.122374535,1460,5.861003876,1460,12.7058773,
1458,7.924976826,1458,7.10746479,1458,5.128376961,1458,5.792876244,1458,12.71936703,
1456,7.832160473,1456,7.089687824,1456,5.230722904,1456,5.795018673,1456,12.7883215,
1454,7.836291313,1454,7.048788548,1454,5.236559391,1454,5.830472946,1454,12.84965897,
1452,7.825118065,1452,6.905327797,1452,5.241675854,1452,5.890760899,1452,12.8435564,
1450,7.908806801,1450,6.922099113,1450,5.218881607,1450,5.907277584,1450,12.85506153,
1448,7.899517536,1448,6.943628788,1448,5.147398472,1448,5.896348,1448,12.7735939,
1446,7.895264626,1446,7.058598995,1446,5.15919733,1446,5.861298084,1446,12.75629711,
1444,7.852963448,1444,7.064357281,1444,5.163958549,1444,5.74306488,1444,12.73329735,
1442,7.749797344,1442,7.038255692,1442,5.256597996,1442,5.724325657,1442,12.8020525,
1440,7.738977432,1440,7.014113426,1440,5.271810532,1440,5.721975327,1440,12.85989475,
1438,7.731594086,1438,6.867510796,1438,5.289886475,1438,5.819197655,1438,12.865201,
1436,7.815524101,1436,6.892561913,1436,5.267699718,1436,5.864989758,1436,12.87023258,
1434,7.817986488,1434,6.904467106,1434,5.199141979,1434,5.910573959,1434,12.80063248,
1432,7.802470684,1432,7.03157711,1432,5.187401772,1432,5.904128075,1432,12.76013088,
1430,7.766188622,1430,7.023990154,1430,5.191896439,1430,5.783195019,1430,12.73805809,
1428,7.665541172,1428,7.027508259,1428,5.286302567,1428,5.749054432,1428,12.80209255,
1426,7.644583225,1426,7.003389835,1426,5.308429718,1426,5.684909821,1426,12.85288048,
1424,7.633998394,1424,6.861363411,1424,5.318789005,1424,5.739934444,1424,12.8663826,
1422,7.715168476,1422,6.896954536,1422,5.309603214,1422,5.745563507,1422,12.85752392,
1420,7.708529949,1420,6.870928288,1420,5.214868069,1420,5.79025507,1420,12.77332878,
1418,7.716401577,1418,7.038951874,1418,5.204692841,1418,5.839768887,1418,12.74805355,
1416,7.653441429,1416,7.004967213,1416,5.215592861,1416,5.797289848,1416,12.68560028,
1414,7.554419994,1414,7.028181076,1414,5.286358833,1414,5.80018568,1414,12.75824928,
1412,7.522525787,1412,7.011517048,1412,5.333260059,1412,5.761288643,1412,12.78250027,
1410,7.50982523,1410,6.87950325,1410,5.327446938,1410,5.80372715,1410,12.7771349,
1408,7.569804192,1408,6.916282177,1408,5.338880062,1408,5.785591125,1408,12.74376774,
1406,7.52524519,1406,6.851014614,1406,5.19281435,1406,5.744780064,1406,12.6226368,
1404,7.571583748,1404,7.02899456,1404,5.21304512,1404,5.7649827,1404,12.64482403,
1402,7.476505756,1402,7.018857479,1402,5.21327877,1402,5.690371037,1402,12.5279026,
1400,7.449858665,1400,7.067061424,1400,5.302261353,1400,5.722527027,1400,12.68783951,
1398,7.3517313,1398,7.043083191,1398,5.337807178,1398,5.738507748,1398,12.59557343,
1396,7.37529707,1396,6.887580395,1396,5.316008091,1396,5.81522274,1396,12.69649315,
1394,7.360592365,1394,6.86893034,1394,5.295401573,1394,5.814929485,1394,12.55323124,
1392,7.416580677,1392,6.830367565,1392,5.17220068,1392,5.80278492,1392,12.62241745,
1390,7.421072006,1390,7.008822441,1390,5.221514225,1390,5.82260704,1390,12.55674076,
1388,7.469533443,1388,7.096533298,1388,5.276044369,1388,5.775253296,1388,12.65819931,
1386,7.428343773,1386,7.203433514,1386,5.393493652,1386,5.796978474,1386,12.6955719,
1384,7.349925995,1384,7.163551331,1384,5.422282219,1384,5.780544281,1384,12.67076302,
1382,7.225047588,1382,6.939980984,1382,5.330650806,1382,5.765293598,1382,12.52619743,
1380,7.174246788,1380,6.790427685,1380,5.251835823,1380,5.743991375,1380,12.43644524,
1378,7.225792885,1378,6.768912792,1378,5.147149563,1378,5.77625227,1378,12.46866322,
1376,7.335119724,1376,6.945668697,1376,5.223528862,1376,5.889463902,1376,12.56248474,
1374,7.398752213,1374,7.118277073,1374,5.301534176,1374,5.881955624,1374,12.65612411,
1372,7.337521553,1372,7.13478756,1372,5.370616913,1372,5.831719875,1372,12.67887783,
1370,7.2572999,1370,7.114054203,1370,5.408681393,1370,5.767905712,1370,12.66868305,
1368,7.188787937,1368,6.928666592,1368,5.358950615,1368,5.7498703,1368,12.59246445,
1366,7.220069885,1366,6.915425301,1366,5.363324165,1366,5.807077408,1366,12.59224701,
1364,7.228863239,1364,6.914717674,1364,5.281545639,1364,5.843348026,1364,12.51695633,
1362,7.155634403,1362,6.869652748,1362,5.196916103,1362,5.83890152,1362,12.36862564,
1360,7.13642025,1360,6.893205643,1360,5.147528648,1360,5.751918793,1360,12.37008667,
1358,7.082361698,1358,6.832458019,1358,5.179117203,1358,5.706263542,1358,12.43455219,
1356,7.088972092,1356,6.865158081,1356,5.247092724,1356,5.67787838,1356,12.61100197,
1354,7.106809139,1354,6.71789217,1354,5.249945641,1354,5.685564041,1354,12.68212986,
1352,7.173750401,1352,6.662946701,1352,5.229270458,1352,5.730321884,1352,12.7642498,
1350,7.292014122,1350,6.672759533,1350,5.189264774,1350,5.756523609,1350,12.84571457,
1348,7.320335388,1348,6.747003078,1348,5.154777527,1348,5.810534954,1348,12.8041687,
1346,7.333349228,1346,6.838091373,1346,5.149619102,1346,5.70089817,1346,12.84142685,
1344,7.271158695,1344,6.832332134,1344,5.209014893,1344,5.706537724,1344,12.89221764,
1342,7.231447697,1342,6.845519543,1342,5.277239323,1342,5.700185299,1342,13.01523876,
1340,7.233262062,1340,6.708603859,1340,5.287008286,1340,5.791625977,1340,13.05810165,
1338,7.271861076,1338,6.651359081,1338,5.260296345,1338,5.862482071,1338,13.06374073,
1336,7.350283623,1336,6.633786678,1336,5.202483177,1336,5.851910591,1336,13.0585556,
1334,7.340902805,1334,6.702214241,1334,5.133725166,1334,5.81846571,1334,12.96071434,
1332,7.328090668,1332,6.77955389,1332,5.138994694,1332,5.671375751,1332,12.95632744,
1330,7.257545948,1330,6.76701498,1330,5.172324657,1330,5.63657856,1330,12.96207047,
1328,7.189218521,1328,6.753250122,1328,5.239004135,1328,5.644245148,1328,13.04470921,
1326,7.183712959,1326,6.636109352,1326,5.253664017,1326,5.792524815,1326,13.08138847,
1324,7.211416245,1324,6.570611,1324,5.225979328,1324,5.906588554,1324,13.08039284,
1322,7.292062759,1322,6.555399418,1322,5.200602531,1322,5.913204193,1322,13.06794453,
1320,7.283437252,1320,6.619737148,1320,5.114224911,1320,5.83239603,1320,12.96654892,
1318,7.270154476,1318,6.698732853,1318,5.132498741,1318,5.678027153,1318,12.94820309,
1316,7.207270622,1316,6.700487614,1316,5.145201206,1316,5.607501507,1316,12.93574715,
1314,7.117959023,1314,6.687767029,1314,5.231379509,1314,5.633759022,1314,12.98011589,
1312,7.109945297,1312,6.607392311,1312,5.236626148,1312,5.767453671,1312,13.00502396,
1310,7.120660782,1310,6.519191742,1310,5.225777626,1310,5.870485783,1310,12.98822594,
1308,7.185551643,1308,6.515244484,1308,5.18804884,1308,5.901284695,1308,12.95019245,
1306,7.158384323,1306,6.53110075,1306,5.083158016,1306,5.827877998,1306,12.82587624,
1304,7.126950264,1304,6.600930691,1304,5.077101707,1304,5.737513542,1304,12.77250671,
1302,7.080304623,1302,6.582763672,1302,5.062543392,1302,5.64866972,1302,12.76996899,
1300,6.990373135,1300,6.554425716,1300,5.15597105,1300,5.666681767,1300,12.82527733,
1298,6.984408379,1298,6.505087852,1298,5.146708488,1298,5.693336487,1298,12.87948513,
1296,6.998346806,1296,6.39544487,1296,5.145530224,1296,5.751687527,1296,12.87316704,
1294,7.083226681,1294,6.412268639,1294,5.115102768,1294,5.752183437,1294,12.87279415,
1292,7.086469173,1292,6.431175709,1292,5.027346134,1292,5.766763687,1292,12.79063702,
1290,7.078778744,1290,6.535805702,1290,5.034250736,1290,5.781091213,1290,12.75727272,
1288,7.040200233,1288,6.531517029,1288,5.036547661,1288,5.739416122,1288,12.7525444,
1286,6.942677498,1286,6.523839474,1286,5.13910532,1286,5.740831852,1286,12.80326557,
1284,6.939019203,1284,6.478662968,1284,5.13104248,1284,5.675957203,1284,12.8509779,
1282,6.942256451,1282,6.360979557,1282,5.149448872,1282,5.694526196,1282,12.84658051,
1280,7.026485443,1280,6.365511417,1280,5.113745689,1280,5.686240673,1280,12.83621979,
1278,7.034590721,1278,6.385095596,1278,5.037293434,1278,5.754310608,1278,12.7574873,
1276,7.018694878,1276,6.507381916,1276,5.039052486,1276,5.808115959,1276,12.7156601,
1274,6.989219666,1274,6.497814655,1274,5.064314365,1274,5.766130447,1274,12.70673084,
1272,6.889063835,1272,6.505468369,1272,5.153666973,1272,5.734209538,1272,12.73763657,
1270,6.884188175,1270,6.45375824,1270,5.165472031,1270,5.647702217,1270,12.79115105,
1268,6.884861946,1268,6.32370472,1268,5.183674335,1268,5.694870472,1268,12.78155422,
1266,6.961645126,1266,6.345085144,1266,5.157121658,1266,5.695553303,1266,12.76982403,
1264,6.974289417,1264,6.355424404,1264,5.087061882,1264,5.756550789,1264,12.70245361,
1262,6.96309042,1262,6.485404015,1262,5.074973583,1262,5.754330158,1262,12.64575291,
1260,6.941732883,1260,6.481370449,1260,5.104699135,1260,5.691706181,1260,12.64645004,
1258,6.842387676,1258,6.483394623,1258,5.167689323,1258,5.680427551,1258,12.66292477,
1256,6.835412025,1256,6.444179058,1256,5.189783096,1256,5.693147182,1256,12.7199707,
1254,6.833267212,1254,6.337653637,1254,5.184034824,1254,5.784072876,1254,12.7045927,
1252,6.901700974,1252,6.343259811,1252,5.167519569,1252,5.754288197,1252,12.69589329,
1250,6.918071747,1250,6.356880665,1250,5.087162971,1250,5.732902527,1250,12.63326073,
1248,6.908352852,1248,6.4694314,1248,5.071007252,1248,5.668373108,1248,12.56434345,
1246,6.893751144,1246,6.466545105,1246,5.088567734,1246,5.639328957,1246,12.5557766,
1244,6.799427509,1244,6.476338387,1244,5.137224197,1244,5.695205688,1244,12.57191753,
1242,6.786075115,1242,6.434042931,1242,5.177518845,1242,5.765515327,1242,12.62010193,
1240,6.782584667,1240,6.330944061,1240,5.15933609,1240,5.808784962,1240,12.61239243,
1238,6.847113609,1238,6.326560497,1238,5.160533905,1238,5.74064827,1238,12.5983057,
1236,6.869210243,1236,6.340740681,1236,5.066644192,1236,5.686490059,1236,12.53960991,
1234,6.860575676,1234,6.404759884,1234,5.06141901,1234,5.673385143,1234,12.46760082,
1232,6.84759903,1232,6.45050478,1232,5.064146042,1232,5.675705433,1232,12.44890213,
1230,6.758951187,1230,6.441455841,1230,5.113859177,1230,5.717257977,1230,12.45214367,
1228,6.735793591,1228,6.433854103,1228,5.158650875,1228,5.745225906,1228,12.49598312,
1226,6.727925777,1226,6.320264339,1226,5.144747257,1226,5.731714725,1226,12.47743225,
1224,6.780826092,1224,6.308616638,1224,5.152003288,1224,5.72978878,1224,12.45235348,
1222,6.802327156,1222,6.308419228,1222,5.057958603,1222,5.719231606,1222,12.38975811,
1220,6.790034294,1220,6.376801491,1220,5.051918507,1220,5.730043411,1220,12.30011654,
1218,6.772922039,1218,6.407310009,1218,5.042700291,1218,5.670485497,1218,12.27485085,
1216,6.689748287,1216,6.379547596,1216,5.091239452,1216,5.655382633,1216,12.25961876,
1214,6.661876202,1214,6.373719692,1214,5.121435165,1214,5.672462463,1214,12.29255676,
1212,6.659258366,1212,6.245529652,1212,5.105588913,1212,5.730519772,1212,12.28205299,
1210,6.700059891,1210,6.235460758,1210,5.1028409,1210,5.768377304,1210,12.26695156,
1208,6.736810684,1208,6.235539436,1208,5.022261143,1208,5.726234436,1208,12.23715687,
1206,6.731756687,1206,6.291945934,1206,5.008491039,1206,5.703125954,1206,12.16549301,
1204,6.728164673,1204,6.342748642,1204,4.995164871,1204,5.621292114,1204,12.16148758,
1202,6.669971466,1202,6.325975895,1202,5.041842937,1202,5.66805315,1202,12.15787792,
1200,6.642649174,1200,6.329140663,1200,5.068320274,1200,5.717132568,1200,12.19861317,
1198,6.939370155,1198,6.242294788,1198,4.964815617,1198,5.629163265,1198,12.63411045,
1196,6.869364738,1196,6.210198402,1196,5.054824352,1196,5.574611664,1196,12.76809597,
1194,6.879333973,1194,6.150967598,1194,5.058563709,1194,5.518411636,1194,12.86439896,
1192,6.886576176,1192,6.04470396,1192,5.072484016,1192,5.633555889,1192,12.87678146,
1190,6.989582539,1190,6.063924313,1190,5.03644371,1190,5.697649002,1190,12.87779236,
1188,7.022158146,1188,6.092956066,1188,4.953253269,1188,5.738584995,1188,12.82235241,
1186,7.022555828,1186,6.195757389,1186,4.92288208,1186,5.677357197,1186,12.75052547,
1184,7.011057377,1184,6.183848381,1184,4.938586712,1184,5.536062717,1184,12.75258541,
1182,6.906921387,1182,6.167814255,1182,5.018102169,1182,5.547525883,1182,12.78882885,
1180,6.905784607,1180,6.091293812,1180,5.049685955,1180,5.547715664,1180,12.87025261,
1178,6.91853857,1178,5.984838963,1178,5.056548595,1178,5.660580635,1178,12.87469006,
1176,7.016618729,1176,6.014934063,1176,5.04044199,1176,5.650284767,1176,12.87417984,
1174,7.055635929,1174,6.029170513,1174,4.95828104,1174,5.680574417,1174,12.82379913,
1172,7.058990955,1172,6.152956486,1172,4.935144901,1172,5.669407368,1172,12.75457478,
1170,7.056740761,1170,6.136296272,1170,4.972767353,1170,5.590393543,1170,12.75589275,
1168,6.957043171,1168,6.136702538,1168,5.028232098,1168,5.537651062,1168,12.78120995,
1166,6.944038868,1166,6.071393013,1166,5.0739007,1166,5.49069643,1166,12.84899712,
1164,6.954814434,1164,5.953865528,1164,5.064828396,1164,5.602142811,1164,12.86905003,
1162,7.045319557,1162,5.982491493,1162,5.058181763,1162,5.687154293,1162,12.86354542,
1160,7.101438046,1160,6.003877163,1160,4.962815285,1160,5.747523308,1160,12.82618618,
1158,7.104259014,1158,6.128065109,1158,4.948513508,1158,5.676121712,1158,12.74382591,
1156,7.108451366,1156,6.127009392,1156,4.971930981,1156,5.525250912,1156,12.74393654,
1154,7.011889458,1154,6.126971245,1154,5.016366482,1154,5.461970806,1154,12.75597477,
1152,6.990367889,1152,6.069164276,1152,5.079722881,1152,5.526495934,1152,12.82871246,
1150,6.998671532,1150,5.97800684,1150,5.05903101,1150,5.663209438,1150,12.83003044,
1148,7.073493481,1148,5.998888493,1148,5.072118282,1148,5.705074787,1148,12.82697868,
1146,7.132589817,1146,6.005410671,1146,4.969408512,1146,5.671392441,1146,12.78214169,
1144,7.138995647,1144,6.129897118,1144,4.961198807,1144,5.630597115,1144,12.68989182,
1142,7.14032793,1142,6.132819653,1142,4.96422863,1142,5.535258293,1142,12.68562222,
1140,7.063853741,1140,6.154249191,1140,5.026247025,1140,5.499980927,1140,12.70680141,
1138,7.050853729,1138,6.143657207,1138,5.118851185,1138,5.542357445,1138,12.80704403,
1136,7.044096947,1136,6.034541607,1136,5.097945213,1136,5.619102478,1136,12.78466129,
1134,7.104795456,1134,6.02341795,1134,5.109968662,1134,5.706963539,1134,12.77291584,
1132,7.174002171,1132,6.043535709,1132,5.020870209,1132,5.685182095,1132,12.74301529,
1130,7.194487095,1130,6.177947521,1130,5.031832218,1130,5.628414631,1130,12.66830444,
1128,7.204233646,1128,6.217494011,1128,5.027524948,1128,5.484334469,1128,12.65525532,
1126,7.115305424,1126,6.216323853,1126,5.091291904,1126,5.496279716,1126,12.66225719,
1124,7.073716164,1124,6.198674679,1124,5.15818119,1124,5.594079494,1124,12.72631264,
1122,7.078365326,1122,6.067539215,1122,5.157179832,1122,5.661831856,1122,12.73440838,
1120,7.141151905,1120,6.07113409,1120,5.154407978,1120,5.661626339,1120,12.72278595,
1118,7.23099947,1118,6.107437134,1118,5.078934669,1118,5.5771842,1118,12.70848942,
1116,7.234949589,1116,6.222332001,1116,5.051615715,1116,5.6031847,1116,12.61176872,
1114,7.242082119,1114,6.269214153,1114,5.036282539,1114,5.538998127,1114,12.61314201,
1112,7.179840565,1112,6.265919685,1112,5.102916718,1112,5.560206413,1112,12.62057018,
1110,7.136832237,1110,6.264980316,1110,5.159620762,1110,5.549801826,1110,12.69706917,
1108,7.147835255,1108,6.121103764,1108,5.16322279,1108,5.592151165,1108,12.72214222,
1106,7.200940609,1106,6.14601469,1106,5.148208618,1106,5.636553288,1106,12.71579266,
1104,7.289451599,1104,6.172815323,1104,5.088243008,1104,5.587314606,1104,12.68805885,
1102,7.295650959,1102,6.279641151,1102,5.028998375,1102,5.596150875,1102,12.58800793,
1100,7.296867847,1100,6.324655533,1100,5.03213501,1100,5.547078133,1100,12.5702486,
1098,7.238647461,1098,6.306351662,1098,5.083111286,1098,5.587120533,1098,12.57065201,
1096,7.181976795,1096,6.322729588,1096,5.145191193,1096,5.527734756,1096,12.63425636,
1094,7.190982342,1094,6.168865204,1094,5.157447815,1094,5.510213852,1094,12.64909554,
1092,7.231842518,1092,6.203132153,1092,5.137091637,1092,5.556995392,1092,12.63828278,
1090,7.325164795,1090,6.203580856,1090,5.104650021,1090,5.623182774,1090,12.62343979,
1088,7.328586102,1088,6.290376186,1088,5.025650978,1088,5.664761066,1088,12.52504539,
1086,7.337216377,1086,6.350150108,1086,5.038324356,1086,5.558940887,1086,12.50414085,
1084,7.291836262,1084,6.339525223,1084,5.055199146,1084,5.4940238,1084,12.49535179,
1082,7.222541332,1082,6.35161829,1082,5.122218609,1082,5.47508955,1082,12.5378561,
1080,7.229469776,1080,6.218468666,1080,5.122889042,1080,5.552945137,1080,12.56800747,
1078,7.256170273,1078,6.224761009,1078,5.103686333,1078,5.597554684,1078,12.55653381,
1076,7.357756615,1076,6.226892471,1076,5.070109367,1076,5.616352558,1076,12.53676701,
1074,7.364405155,1074,6.320345402,1074,4.982561588,1074,5.622750282,1074,12.44624901,
1072,7.370260239,1072,6.360048294,1072,4.992730618,1072,5.546039581,1072,12.41797447,
1070,7.331821442,1070,6.376360416,1070,4.981172085,1070,5.454657078,1070,12.4065094,
1068,7.247869015,1068,6.36709547,1068,5.063893795,1068,5.45216465,1068,12.4403429,
1066,7.255004883,1066,6.257633209,1066,5.05760479,1066,5.553251266,1066,12.47540569,
1064,7.277131081,1064,6.241127491,1064,5.050840378,1064,5.638451099,1064,12.45542431,
1062,7.373885155,1062,6.238656044,1062,5.020503044,1062,5.6104002,1062,12.43363571,
1060,7.392419815,1060,6.320715904,1060,4.932126045,1060,5.537946701,1060,12.35132408,
1058,7.384663105,1058,6.385007381,1058,4.938829422,1058,5.517886639,1058,12.30508041,
1056,7.353022099,1056,6.408860683,1056,4.932228565,1056,5.497044086,1056,12.28931332,
1054,7.270223618,1054,6.402639389,1054,5.016513348,1054,5.529620647,1054,12.31974792,
1052,7.273389339,1052,6.323357582,1052,4.995889187,1052,5.538508415,1052,12.34277153,
1050,7.285346985,1050,6.2878685,1050,4.992397308,1050,5.579986572,1050,12.3199892,
1048,7.375115871,1048,6.306306362,1048,4.952100277,1048,5.572113514,1048,12.30077267,
1046,7.384182453,1046,6.373169422,1046,4.868123531,1046,5.556149483,1046,12.21970749,
1044,7.378749371,1044,6.457312584,1044,4.857357025,1044,5.568962097,1044,12.16595078,
1042,7.358522892,1042,6.474915981,1042,4.855653763,1042,5.527416229,1042,12.14877129,
1040,7.269503117,1040,6.472559929,1040,4.926176071,1040,5.513604164,1040,12.1622982,
1038,7.268274784,1038,6.41168499,1038,4.918278217,1038,5.47967577,1038,12.18165016,
1036,7.276976109,1036,6.372297764,1036,4.925123215,1036,5.563609123,1036,12.1612215,
1034,7.350320339,1034,6.406134605,1034,4.890202522,1034,5.598377228,1034,12.13838863,
1032,7.362716675,1032,6.454576015,1032,4.832259655,1032,5.601885319,1032,12.07041264,
1030,7.359478474,1030,6.550685406,1030,4.829003334,1030,5.550596237,1030,12.01147556,
1028,7.339497566,1028,6.564226627,1028,4.850667,1028,5.472182751,1028,11.98396587,
1026,7.253314018,1026,6.572385788,1026,4.908927441,,,1026,11.98225117,
1024,7.243289948,1024,6.529130936,1024,4.925067902,,,1024,11.99736118,
1022,7.2415061,1022,6.485913754,1022,4.928032875,,,1022,11.9719429,
1020,7.299475193,1020,6.516721725,1020,4.905518055,,,1020,11.94676208,
1018,7.315534592,1018,6.554919243,1018,4.847486496,,,1018,11.88462639,
1016,7.301741123,1016,6.657659054,1016,4.835489273,,,1016,11.81866455,
1014,7.28801775,1014,6.661821365,1014,4.840756416,,,1014,11.78883171,
1012,7.210803032,1012,6.679788113,1012,4.873783112,,,1012,11.78057766,
1010,7.191757202,1010,6.645508289,1010,4.894197464,,,1010,11.78166199,
1008,7.184040546,1008,6.590904236,1008,4.886257648,,,1008,11.75344849,
1006,7.221359253,1006,6.612869263,1006,4.878981113,,,1006,11.72270584,
1004,7.230121613,1004,6.649254799,1004,4.830789566,,,1004,11.66682625,
1002,7.216858864,1002,6.751832485,1002,4.825565815,,,1002,11.60047531,
1000,7.199288845,1000,6.760742664,1000,4.834061146,,,1000,11.56999016,
998,7.128352165,998,6.781279087,998,4.873411179,,,998,11.54542637,
996,7.107831478,996,6.758880615,996,4.903913975,,,996,11.54338837,
994,7.093144417,994,6.715685844,994,4.897666454,,,994,11.5196352,
992,7.111161232,992,6.73154974,992,4.899950027,,,992,11.48914433,
990,7.119989395,990,6.766262054,990,4.851551533,,,990,11.45043182,
988,7.099142075,988,6.842578888,988,4.834155083,,,988,11.38530064,
986,7.084622383,986,6.853963375,986,4.822311878,,,986,11.35992908,
984,7.030344009,984,6.860984802,984,4.83552742,,,984,11.34070301,
982,7.001192093,982,6.837811947,982,4.84531641,,,982,11.34776402,
980,6.987366199,980,6.795030117,980,4.829908848,,,980,11.34029675,
978,7.001981735,978,6.801277161,978,4.823662758,,,978,11.32731628,
976,7.017755508,976,6.82585001,976,4.788266659,,,976,11.30788898,
974,7.01264286,974,6.88116312,974,4.77778101,,,974,11.26329803,
972,7.004770756,972,6.902121067,972,4.775972843,,,972,11.24680233,
970,6.969204426,970,6.906015396,970,4.794435978,,,970,11.24301815,
968,6.941828728,968,6.899374962,968,4.812603951,,,968,11.260396,
966,6.932784557,966,6.873394489,966,4.811094761,,,966,11.25980949,
964,6.946804523,964,6.874614239,964,4.799358368,,,964,11.25707817,
962,6.961141586,962,6.886615753,962,4.768030643,,,962,11.24799538,
960,6.957900524,960,6.922080517,960,4.74333477,,,960,11.21281528,
958,6.955121994,958,6.937055111,958,4.726893425,,,958,11.20836258,
956,6.926764488,956,6.93891573,956,4.72825861,,,956,11.20989513,
954,6.901568413,954,6.932867527,954,4.739433765,,,954,11.24058342,
952,6.899682999,952,6.904457569,952,4.734464169,,,952,11.25918102,
950,6.915409088,950,6.899559498,950,4.728268623,,,950,11.26884556,
948,6.937121391,948,6.909674644,948,4.710915089,,,948,11.27149773,
946,6.94405365,946,6.937502384,946,4.698681831,,,946,11.25324821,
944,6.939777851,944,6.956357002,944,4.702826977,,,944,11.25531578,
942,6.915794373,942,6.951983452,942,4.720095158,,,942,11.26923943,
940,6.890584469,940,6.954478264,940,4.747279644,,,940,11.30331993,
938,6.887116432,938,6.918083668,938,4.754211903,,,938,11.32505226,
936,6.900910854,936,6.913772106,936,4.757810593,,,936,11.34709454,
934,6.933244228,934,6.94451189,934,4.751909733,,,934,11.36545181,
932,6.928842545,932,6.99911499,932,4.741453171,,,932,11.35911274,
930,6.924226761,930,7.061821938,930,4.745049,,,930,11.36381149,
928,6.901569843,928,7.155072689,928,4.761558533,,,928,11.38731956,
926,6.87116766,926,7.300517082,926,4.803846359,,,926,11.43202019,
924,6.865171432,924,7.59081316,924,4.852044106,,,924,11.48020077,
922,6.86836338,922,7.887423992,922,4.93951273,,,922,11.51983738,
920,6.946401119,920,8.356092453,920,5.120405197,,,920,11.59136295,
918,7.114549637,918,8.82890892,918,5.421676636,,,918,11.70463181,
916,7.41981411,916,9.583652496,916,5.83654356,,,916,11.88084888,
914,7.742427349,914,10.35224533,914,6.410074234,,,914,12.10918045,
912,7.835666656,912,10.71936226,912,6.613429546,,,912,12.18972969,
910,7.824437141,910,10.81729698,910,6.614953995,,,910,12.17987537,
908,7.835164547,908,10.76525497,908,6.591697693,,,908,12.17861652,
906,7.936895847,906,10.70144367,906,6.620560646,,,906,12.17273235,
904,7.917787075,904,10.58549213,904,6.652352333,,,904,12.18681812,
902,7.898001194,902,10.52428818,902,6.600826263,,,902,12.16795921,
900,7.818068027,900,10.48011303,900,6.57331562,,,900,12.14780045,
898,7.688459873,898,10.48607349,898,6.475178242,,,898,12.11986065,
896,7.67095232,896,10.52571964,896,6.484862328,,,896,12.11176205,
894,7.660003185,894,10.5087347,894,6.434418201,,,894,12.11344337,
892,7.758153915,892,10.44685364,892,6.467799187,,,892,12.11170959,
890,7.747135162,890,10.36629963,890,6.47405529,,,890,12.12336445,
888,7.706467628,888,10.26392269,888,6.44173336,,,888,12.10540009,
886,7.636763096,886,10.23029995,886,6.398853779,,,886,12.09021473,
884,7.480491638,884,10.20769596,884,6.313580513,,,884,12.06757927,
882,7.453875065,882,10.23337936,882,6.317263603,,,882,12.06095505,
880,7.422746658,880,10.22535515,880,6.272863388,,,880,12.05835247,
878,7.502047539,878,10.1626482,878,6.300373554,,,878,12.05799675,
876,7.479403973,876,10.10124493,876,6.294527054,,,876,12.07095623,
874,7.432869911,874,9.977805138,874,6.285909653,,,874,12.05213165,
872,7.348497868,872,9.972585678,872,6.247595787,,,872,12.04429054,
870,7.166558266,870,9.938991547,870,6.175508022,,,870,12.02681065,
868,7.120632172,868,9.966194153,868,6.146514416,,,868,12.01203251,
866,7.074627399,866,9.973695755,866,6.13799572,,,866,12.01988792,
864,7.136398315,864,9.937321663,864,6.143964767,,,864,12.0184927,
862,7.108913422,862,9.872670174,862,6.150100231,,,862,12.0297575,
860,7.032344341,860,9.726389885,860,6.146060944,,,860,12.02640438,
858,6.9445467,858,9.739824295,858,6.087166309,,,858,12.0180397,
856,6.768098354,856,9.691298485,856,6.01993084,,,856,12.00568485,
854,6.715780258,854,9.716768265,854,5.965779305,,,854,11.98911667,
852,6.652047634,852,9.713724136,852,5.955487728,,,852,11.99244499,
850,6.692418575,850,9.655261993,850,5.9209795,,,850,11.99891567,
848,6.668128967,848,9.572987556,848,5.97081995,,,848,12.01454544,
846,6.587260246,846,9.455830574,846,5.941882133,,,846,12.00116158,
844,6.520177364,844,9.450990677,844,5.881442547,,,844,12.00762653,
842,6.329043865,842,9.398918152,842,5.797045708,,,842,11.98635101,
840,6.263936996,840,9.411067009,840,5.737775803,,,840,11.98598003,
838,6.208797932,838,9.402523041,838,5.736833572,,,838,11.98001289,
836,6.238727093,836,9.342887878,836,5.668828011,,,836,11.98847294,
834,6.195511818,834,9.272254944,834,5.747904778,,,834,11.99794197,
832,6.131349087,832,9.160993576,832,5.680858612,,,832,11.98941326,
830,6.064759254,830,9.100462914,830,5.636948109,,,830,11.98259544,
828,5.891332626,828,9.057472229,828,5.534470081,,,828,11.96794796,
826,5.798448086,826,9.043561935,826,5.475495815,,,826,11.95395088,
824,5.738797188,824,9.048433304,824,5.470956326,,,824,11.95816708,
822,5.757550716,822,8.971457481,822,5.404488564,,,822,11.95527363,
820,5.744337082,820,8.901147842,820,5.448173046,,,820,11.97171593,
818,5.684113026,818,8.767277718,818,5.362134933,,,818,11.95246696,
816,5.629814625,816,8.692340851,816,5.340169907,,,816,11.93418694,
814,5.449493408,814,8.647839546,814,5.221927166,,,814,11.92662811,
812,5.379318237,812,8.602921486,812,5.160104752,,,812,11.90675926,
810,5.328953266,810,8.587015152,810,5.096831799,,,810,11.89478016,
808,5.353373528,808,8.480463028,808,5.052174568,,,808,11.90686989,
806,5.361395836,806,8.350963593,806,5.060142517,,,806,11.88845444,
804,5.31183815,804,8.230091095,804,4.976925373,,,804,11.89726925,
802,5.255446911,802,8.160094261,802,4.93830204,,,802,11.86079597,
800,5.135745525,800,8.070228577,800,4.81137991,,,800,11.8422308,
799,4.247864246,799,5.610321045,799,3.571566105,,,799,10.8724184,
798,4.216344833,798,5.599781036,798,3.56500268,,,798,10.89110661,
797,4.178943634,797,5.57217741,797,3.587803364,,,797,10.90520096,
796,4.143032551,796,5.501862049,796,3.573282719,,,796,10.92678165,
795,4.152523518,795,5.476878166,795,3.558031082,,,795,10.93421841,
794,4.133048058,794,5.448714733,794,3.538608551,,,794,10.94861889,
793,4.107686996,793,5.460356712,793,3.499630451,,,793,10.90534496,
792,4.088392258,792,5.464512348,792,3.483180761,,,792,10.88599777,
791,4.040585041,791,5.446069241,791,3.476007938,,,791,10.90110016,
790,4.010806561,790,5.408053398,790,3.487329245,,,790,10.93196297,
789,3.989347935,789,5.358234406,789,3.484783649,,,789,10.95231056,
788,3.99181366,788,5.322320461,788,3.466363192,,,788,10.96632862,
787,3.97606945,787,5.30819273,787,3.450627565,,,787,10.96054935,
786,3.948903799,786,5.303068161,786,3.405256271,,,786,10.92967129,
785,3.930272579,785,5.314263821,785,3.395924807,,,785,10.92729759,
784,3.887419701,784,5.295372963,784,3.394366503,,,784,10.91424084,
783,3.853769541,783,5.276140213,783,3.395920277,,,783,10.96851349,
782,3.836852789,782,5.220119476,782,3.390343428,,,782,10.98388481,
781,3.832109213,781,5.171820164,781,3.380351543,,,781,10.99540997,
780,3.823893547,780,5.163002014,780,3.364215851,,,780,10.99416733,
779,3.803361654,779,5.153107643,779,3.329016209,,,779,10.96126175,
778,3.785610914,778,5.168701649,778,3.320937157,,,778,10.96637917,
777,3.742553949,777,5.149944305,777,3.309161186,,,777,10.97254944,
776,3.715308428,776,5.13952446,776,3.318241596,,,776,11.00199032,
775,3.693095207,775,5.079452991,775,3.31871295,,,775,11.03638458,
774,3.690697193,774,5.029561043,774,3.306810856,,,774,11.05114365,
773,3.681584835,773,5.010515213,773,3.298909903,,,773,11.0624342,
772,3.658947706,772,5.003403664,772,3.264879465,,,772,11.01900005,
771,3.64335227,771,5.021467209,771,3.25830245,,,771,11.02506256,
770,3.613456011,770,5.005936623,770,3.255618811,,,770,11.03568745,
769,3.577957392,769,4.989788055,769,3.262353659,,,769,11.0633173,
768,3.562646627,768,4.94965601,768,3.266692162,,,768,11.099123,
767,3.549467325,767,4.891750813,767,3.256512403,,,767,11.10383892,
766,3.55585289,766,4.870059967,766,3.249204159,,,766,11.11378384,
765,3.532705069,765,4.873063564,765,3.211169004,,,765,11.09072685,
764,3.521676064,764,4.888324261,764,3.207448006,,,764,11.08398438,
763,3.487481594,763,4.871798515,763,3.198832989,,,763,11.0997982,
762,3.465679646,762,4.859587193,762,3.21135807,,,762,11.13843346,
761,3.448904753,761,4.821504593,761,3.217640877,,,761,11.16523361,
760,3.439778566,760,4.758760929,760,3.204836369,,,760,11.18950748,
759,3.440480232,759,4.741893768,759,3.202093363,,,759,11.20277309,
758,3.425132036,758,4.739977837,758,3.171174288,,,758,11.16603851,
757,3.417047501,757,4.76157999,757,3.157341003,,,757,11.16451454,
756,3.387561083,756,4.748321056,756,3.155557871,,,756,11.1899147,
755,3.363438606,755,4.738924503,755,3.158890009,,,755,11.21837902,
754,3.345368862,754,4.700517654,754,3.162537813,,,754,11.25238037,
753,3.341798782,753,4.640544415,753,3.161185265,,,753,11.2658186,
752,3.340464354,752,4.629149437,752,3.153328896,,,752,11.28408718,
751,3.332392931,751,4.620597363,751,3.131025553,,,751,11.27876377,
750,3.315641642,750,4.643877983,750,3.104653835,,,750,11.26733685,
749,3.296333075,749,4.633099079,749,3.103404045,,,749,11.276371,
748,3.269721508,748,4.612082958,748,3.114789009,,,748,11.30880833,
747,3.260158777,747,4.593456268,747,3.120174885,,,747,11.36674976,
746,3.248326063,746,4.529744148,746,3.115990639,,,746,11.37455368,
745,3.255221367,745,4.51785326,745,3.104003191,,,745,11.38399982,
744,3.245090723,744,4.509505749,744,3.085167408,,,744,11.37601089,
743,3.233486414,743,4.529635429,743,3.065526247,,,743,11.37207317,
742,3.216444254,742,4.526503086,742,3.063322067,,,742,11.38352489,
741,3.198459625,741,4.511816025,741,3.072402,,,741,11.41459084,
740,3.178179979,740,4.502646446,740,3.087449312,,,740,11.46642303,
739,3.171944141,739,4.441535473,739,3.085823774,,,739,11.50359726,
738,3.185870886,738,4.431032658,738,3.080207825,,,738,11.51120377,
737,3.170431376,737,4.419309616,737,3.060232162,,,737,11.50959015,
736,3.164282084,736,4.441268444,736,3.047770739,,,736,11.49954414,
735,3.153585672,735,4.442612171,735,3.050221443,,,735,11.50880241,
734,3.126770258,734,4.434511185,734,3.052296877,,,734,11.54337406,
733,3.116373777,733,4.426727295,733,3.074763775,,,733,11.59137535,
732,3.10549283,732,4.365623951,732,3.070058584,,,732,11.62211514,
731,3.118046761,731,4.361196041,731,3.076227427,,,731,11.63536167,
730,3.114188433,730,4.350799561,730,3.065711021,,,730,11.65960789,
729,3.104580641,729,4.378222466,729,3.042075157,,,729,11.63842487,
728,3.089096308,728,4.38024044,728,3.053846836,,,728,11.65625572,
727,3.069388628,727,4.374203682,727,3.060014963,,,727,11.69727707,
726,3.053556681,726,4.366809845,726,3.092545033,,,726,11.750103,
725,3.058133364,725,4.315913677,725,3.088413715,,,725,11.77836418,
724,3.062426567,724,4.303076267,724,3.098836899,,,724,11.79055977,
723,3.062797785,723,4.292329311,723,3.087720633,,,723,11.81769753,
722,3.056167841,722,4.318234921,722,3.070391893,,,722,11.8075943,
721,3.048870325,721,4.325376034,721,3.082401037,,,721,11.81996727,
720,3.02772975,720,4.320937634,720,3.087704897,,,720,11.84778786,
719,3.017966032,719,4.303992271,719,3.116989136,,,719,11.9080286,
718,3.014929771,718,4.258003712,718,3.122969389,,,718,11.9335928,
717,3.020374775,717,4.240894794,717,3.132720232,,,717,11.95704937,
716,3.024295807,716,4.225666523,716,3.129566908,,,716,11.98187447,
715,3.021557331,715,4.242058277,715,3.114137173,,,715,11.96079159,
714,3.019506216,714,4.251592159,714,3.122992992,,,714,11.9835186,
713,2.997208595,713,4.250566483,713,3.132659674,,,713,12.0088644,
712,2.985933065,712,4.230632305,712,3.16275692,,,712,12.05499458,
711,2.983330011,711,4.180089474,711,3.172016859,,,711,12.0916996,
710,2.987179518,710,4.154740334,710,3.183327913,,,710,12.12322903,
709,2.997922421,709,4.141927719,709,3.177114248,,,709,12.13542938,
708,2.993124485,708,4.149820805,708,3.16900301,,,708,12.11776829,
707,2.992696285,707,4.174482346,707,3.173371077,,,707,12.14274502,
706,2.969473362,706,4.151567459,706,3.185851097,,,706,12.15723324,
705,2.958250999,705,4.140156269,705,3.218087673,,,705,12.21666622,
704,2.957396269,704,4.090961456,704,3.230726004,,,704,12.2513752,
703,2.964020729,703,4.061236858,703,3.238325596,,,703,12.27058029,
702,2.968327045,702,4.052978039,702,3.239446163,,,702,12.29592896,
701,2.967852831,701,4.058338165,701,3.230459213,,,701,12.27129078,
700,2.958752394,700,4.077589035,700,3.239842892,,,700,12.27660942,
699,2.939323187,699,4.064400196,699,3.246994734,,,699,12.27777386,
698,2.928038597,698,4.045461655,698,3.279290676,,,698,12.33408833,
697,2.921720505,697,4.003803253,697,3.302215338,,,697,12.3610239,
696,2.930946827,696,3.982961178,696,3.307905674,,,696,12.38003826,
695,2.934717655,695,3.979489326,695,3.318790674,,,695,12.39513874,
694,2.9285326,694,3.985271215,694,3.30071187,,,694,12.36800861,
693,2.923483133,693,4.009055138,693,3.3119452,,,693,12.35297012,
692,2.902637243,692,3.997652292,692,3.321057558,,,692,12.37131786,
691,2.887154102,691,3.996345043,691,3.357226849,,,691,12.40440559,
690,2.882665873,690,3.960657597,690,3.37465024,,,690,12.42467117,
689,2.882321835,689,3.929274082,689,3.385133982,,,689,12.42981434,
688,2.887813807,688,3.928168774,688,3.399215698,,,688,12.43212414,
687,2.879136324,687,3.940061569,687,3.384075642,,,687,12.39165306,
686,2.872321844,686,3.968606472,686,3.396963596,,,686,12.37271786,
685,2.851276398,685,3.958455086,685,3.401108027,,,685,12.35617638,
684,2.833916664,684,3.961784363,684,3.438623667,,,684,12.37566853,
683,2.824522018,683,3.931691408,683,3.457341671,,,683,12.38040447,
682,2.819796085,682,3.899734735,682,3.461705923,,,682,12.37918186,
681,2.822629929,681,3.888522387,681,3.46798563,,,681,12.35558319,
680,2.813953638,680,3.899293423,680,3.452511549,,,680,12.30468369,
679,2.80262351,679,3.928821564,679,3.460268259,,,679,12.27351379,
678,2.779573441,678,3.918642282,678,3.466265678,,,678,12.2457571,
677,2.757263184,677,3.909083843,677,3.488596201,,,677,12.22653866,
676,2.747502804,676,3.889737606,676,3.49881649,,,676,12.23117352,
675,2.738436222,675,3.842058659,675,3.503059864,,,675,12.20281506,
674,2.742182016,674,3.827720881,674,3.500144482,,,674,12.17352581,
673,2.731757879,673,3.833735466,673,3.476666927,,,673,12.1159668,
672,2.719444513,672,3.853460312,672,3.468429327,,,672,12.07836533,
671,2.703151941,671,3.84937191,671,3.472159386,,,671,12.05358315,
670,2.683584452,670,3.842263937,670,3.492245197,,,670,12.07190323,
669,2.676936388,669,3.822773218,669,3.506051302,,,669,12.10474777,
668,2.67290163,668,3.774686813,668,3.516994476,,,668,12.11766243,
667,2.687493801,667,3.776082754,667,3.521070242,,,667,12.13161564,
666,2.682696342,666,3.783638477,666,3.509569168,,,666,12.11998272,
665,2.678639174,665,3.809907198,665,3.509081125,,,665,12.10886192,
664,2.665638447,664,3.810137033,664,3.516948223,,,664,12.11928844,
663,2.648984909,663,3.801278114,663,3.540146351,,,663,12.15049839,
662,2.643946171,662,3.787265301,662,3.565055132,,,662,12.19547653,
661,2.644032717,661,3.736429691,661,3.576918602,,,661,12.21722221,
660,2.655414581,660,3.734437466,660,3.58176446,,,660,12.23717213,
659,2.652797222,659,3.726762533,659,3.568390846,,,659,12.21374607,
658,2.652663469,658,3.75457716,658,3.561467648,,,658,12.20211124,
657,2.636853218,657,3.749133348,657,3.576056719,,,657,12.21995163,
656,2.620703459,656,3.738350868,656,3.597254038,,,656,12.25379467,
655,2.616590977,655,3.728754759,655,3.630279779,,,655,12.30218792,
654,2.620526075,654,3.671591043,654,3.643613338,,,654,12.33070183,
653,2.631888628,653,3.671780586,653,3.657730579,,,653,12.35758495,
652,2.631107807,652,3.659462929,652,3.653620243,,,652,12.360816,
651,2.628469467,651,3.687447309,651,3.648708344,,,651,12.34838104,
650,2.621106863,650,3.684916258,650,3.667732716,,,650,12.37019444,
649,2.606971741,649,3.677060127,649,3.693743467,,,649,12.41492081,
648,2.604714394,648,3.6634233,648,3.735589981,,,648,12.49034691,
647,2.60803628,647,3.618300676,647,3.747657776,,,647,12.53138065,
646,2.623734713,646,3.609050512,646,3.762614012,,,646,12.57221889,
645,2.627813816,645,3.600140572,645,3.763541937,,,645,12.60067654,
644,2.631232977,644,3.624884367,644,3.758152485,,,644,12.60391045,
643,2.632138729,643,3.626827955,643,3.769628048,,,643,12.64526558,
642,2.616930723,642,3.631112814,642,3.79428792,,,642,12.71264553,
641,2.618942022,641,3.620198727,641,3.838250399,,,641,12.81446934,
640,2.629565716,640,3.580922365,640,3.849217653,,,640,12.89247131,
639,2.650274992,639,3.577813864,639,3.872156143,,,639,12.95592308,
638,2.660534143,638,3.57965827,638,3.871174097,,,638,13.0236969,
637,2.668173552,637,3.609301567,637,3.873219013,,,637,13.06144142,
636,2.674921274,636,3.626532078,636,3.890377283,,,636,13.13821793,
635,2.670363665,635,3.630502939,635,3.925416231,,,635,13.23418617,
634,2.677559853,634,3.632573366,634,3.972672701,,,634,13.36772919,
633,2.692474604,633,3.607951164,633,4.004506111,,,633,13.48010159,
632,2.716948271,632,3.605128765,632,4.033011436,,,632,13.57473469,
631,2.732887745,631,3.616876602,631,4.041098595,,,631,13.66769409,
630,2.742257357,630,3.649060488,630,4.045856953,,,630,13.7208147,
629,2.750476122,629,3.67798543,629,4.066869736,,,629,13.80862617,
628,2.74091959,628,3.68491745,628,4.090875149,,,628,13.89738941,
627,2.74827528,627,3.695471287,627,4.128671169,,,627,14.01722908,
626,2.756068945,626,3.672033548,626,4.144900799,,,626,14.11004829,
625,2.770224333,625,3.663968563,625,4.148286819,,,625,14.18678951,
624,2.779882669,624,3.67403245,624,4.129281044,,,624,14.24258327,
623,2.777926683,623,3.693583488,623,4.091465473,,,623,14.24812412,
622,2.775828123,622,3.722456932,622,4.072385788,,,622,14.2837925,
621,2.753328323,621,3.717543125,621,4.053956032,,,621,14.31473923,
620,2.743316889,620,3.718461037,620,4.049454689,,,620,14.35902691,
619,2.731055021,619,3.680034637,619,4.02831459,,,619,14.38575268,
618,2.731137753,618,3.664903641,618,3.995196819,,,618,14.38178825,
617,2.724782228,617,3.655227661,617,3.958449125,,,617,14.36752224,
616,2.707338095,616,3.660948277,616,3.891964912,,,616,14.30000114,
615,2.688123703,615,3.677590609,615,3.858953238,,,615,14.25734425,
614,2.653552771,614,3.66059351,614,3.828583002,,,614,14.22508812,
613,2.629472971,613,3.653975487,613,3.815727949,,,613,14.21404171,
612,2.607349873,612,3.607423306,612,3.791460514,,,612,14.19056988,
611,2.593754292,611,3.574578524,611,3.755111694,,,611,14.14092159,
610,2.580970049,610,3.558823586,610,3.720129013,,,610,14.08575821,
609,2.559571981,609,3.558134556,609,3.651898623,,,609,13.98648071,
608,2.535248756,608,3.567271709,608,3.618109703,,,608,13.91262245,
607,2.500537872,607,3.551384926,607,3.581925869,,,607,13.85565376,
606,2.472053051,606,3.531533003,606,3.567493677,,,606,13.83034325,
605,2.449184179,605,3.492298365,605,3.537876606,,,605,13.79435062,
604,2.438728809,604,3.459149599,604,3.501376152,,,604,13.74975109,
603,2.426554918,603,3.440088511,603,3.460896015,,,603,13.70201111,
602,2.405985355,602,3.446904182,602,3.398915768,,,602,13.60482025,
601,2.390823603,601,3.472401619,601,3.363814592,,,601,13.54728031,
600,2.362308741,600,3.46791029,600,3.330616713,,,600,13.5174408,
599,2.337243319,599,3.462998867,599,3.327535868,,,599,13.51590633,
598,2.325207472,598,3.44468236,598,3.306918621,,,598,13.51534843,
597,2.32048583,597,3.428359747,597,3.281186104,,,597,13.51429367,
596,2.322239161,596,3.433125019,596,3.256469488,,,596,13.50443077,
595,2.314749479,595,3.462523699,595,3.214292288,,,595,13.47554302,
594,2.309265375,594,3.507002831,594,3.191799641,,,594,13.46476078,
593,2.295089722,593,3.533455849,593,3.177344799,,,593,13.47870636,
592,2.282556295,592,3.555442333,592,3.179828405,,,592,13.51776123,
591,2.275570393,591,3.560598612,591,3.172107697,,,591,13.55057812,
590,2.272927999,590,3.553068638,590,3.158049345,,,590,13.55534458,
589,2.279342413,589,3.577786684,589,3.134248495,,,589,13.55698872,
588,2.266939878,588,3.605317593,588,3.092994928,,,588,13.50552177,
587,2.253427744,587,3.650641918,587,3.061229467,,,587,13.44421482,
586,2.230661154,586,3.662131786,586,3.033706188,,,586,13.3855629,
585,2.203427553,585,3.668788433,585,3.011940241,,,585,13.32631397,
584,2.182154894,584,3.66563797,584,2.9833951,,,584,13.25555325,
583,2.158024073,583,3.621078014,583,2.945028543,,,583,13.15386772,
582,2.141745567,582,3.616746902,582,2.898324728,,,582,13.04250908,
581,2.117778063,581,3.61034584,581,2.840711594,,,581,12.89979649,
580,2.089300394,580,3.629584312,580,2.786299706,,,580,12.74743843,
579,2.054876328,579,3.620692015,579,2.742801905,,,579,12.60612011,
578,2.022266626,578,3.605944633,578,2.706077814,,,578,12.49362278,
577,1.991169214,577,3.584453583,577,2.674906254,,,577,12.37923908,
576,1.967434168,576,3.529716015,576,2.633649349,,,576,12.26413536,
575,1.949789882,575,3.522657633,575,2.589742422,,,575,12.14551067,
574,1.92845273,574,3.506407499,574,2.541309118,,,574,12.00633717,
573,1.902674556,573,3.530651808,573,2.495791197,,,573,11.87138271,
572,1.878991961,572,3.516843081,572,2.45878911,,,572,11.7706213,
571,1.845708251,571,3.510216713,571,2.433447599,,,571,11.67932987,
570,1.828649402,570,3.491346598,570,2.416171312,,,570,11.61146736,
569,1.833328009,569,3.518862963,569,2.383030891,,,569,11.56180096,
568,1.808030486,568,3.511720419,568,2.365398884,,,568,11.51004696,
567,1.79392302,567,3.505580425,567,2.352514505,,,567,11.45661354,
566,1.775314093,566,3.461580753,566,2.334046364,,,566,11.41365814,
565,1.773367286,565,3.447263718,565,2.310787678,,,565,11.35671139,
564,1.767101288,564,3.442604542,564,2.290264845,,,564,11.29525185,
563,1.754153371,563,3.456367254,563,2.253701448,,,563,11.21263885,
562,1.744015932,562,3.477278709,562,2.237559319,,,562,11.16631222,
561,1.723224282,561,3.472112894,561,2.222547531,,,561,11.13124943,
560,1.711206675,560,3.472823381,560,2.220333815,,,560,11.10604,
559,1.699572206,559,3.437619209,559,2.210368395,,,559,11.06154156,
558,1.698625326,558,3.423884153,558,2.194211006,,,558,11.0359478,
557,1.694780827,557,3.426486254,557,2.175832748,,,557,10.99014568,
556,1.689450622,556,3.448604107,556,2.150235415,,,556,10.92156124,
555,1.680429459,555,3.469740868,555,2.138793945,,,555,10.88665771,
554,1.664591074,554,3.47219038,554,2.126761436,,,554,10.8635664,
553,1.654321194,553,3.476910591,553,2.128808022,,,553,10.86241913,
552,1.647904158,552,3.447838068,552,2.123830557,,,552,10.84424019,
551,1.645492554,551,3.436122179,551,2.116194963,,,551,10.82356167,
550,1.646685362,550,3.437279224,550,2.103905916,,,550,10.78111076,
549,1.642547011,549,3.460428476,549,2.077759504,,,549,10.73709202,
548,1.637648225,548,3.488378525,548,2.068989515,,,548,10.70270729,
547,1.6248101,547,3.49204421,547,2.058592081,,,547,10.6883049,
546,1.61492455,546,3.492970467,546,2.067406416,,,546,10.70238686,
545,1.607998133,545,3.468575716,545,2.058052778,,,545,10.67422485,
544,1.606704235,544,3.433489084,544,2.044999123,,,544,10.6568222,
543,1.60807538,543,3.431698322,543,2.033832073,,,543,10.64451218,
542,1.607408762,542,3.44963026,542,2.01718688,,,542,10.61280441,
541,1.603783488,541,3.4872756,541,2.015090227,,,541,10.5992794,
540,1.596604824,540,3.500740528,540,2.011194944,,,540,10.60451317,
539,1.587383628,539,3.504857063,539,2.01943922,,,539,10.62177277,
538,1.586093545,538,3.495465994,538,2.021766186,,,538,10.63216209,
537,1.586416602,537,3.471105576,537,2.020289183,,,537,10.61973095,
536,1.58698833,536,3.473696232,536,2.012300968,,,536,10.61002731,
535,1.586694837,535,3.487660646,535,1.997469783,,,535,10.57064533,
534,1.584208608,534,3.523247242,534,1.990322828,,,534,10.55719948,
533,1.576690435,533,3.534092426,533,1.988130808,,,533,10.54592896,
532,1.566013932,532,3.536066771,532,1.995242953,,,532,10.56759548,
531,1.563250065,531,3.523079634,531,1.998875856,,,531,10.5715971,
530,1.563492775,530,3.493608475,530,1.997878432,,,530,10.57388973,
529,1.568472624,529,3.497961998,529,1.993732333,,,529,10.56506729,
528,1.565314054,528,3.506179571,528,1.976980686,,,528,10.52811909,
527,1.562184215,527,3.539585352,527,1.969391346,,,527,10.50842476,
526,1.555856586,526,3.543253183,526,1.968957305,,,526,10.50915909,
525,1.543899298,525,3.550600529,525,1.973797798,,,525,10.52210999,
524,1.54291141,524,3.542726517,524,1.9794662,,,524,10.53519154,
523,1.542200565,523,3.507788181,523,1.979741454,,,523,10.53306198,
522,1.548271656,522,3.51781559,522,1.977106333,,,522,10.52556229,
521,1.544934988,521,3.519772053,521,1.964251876,,,521,10.49190807,
520,1.544171929,520,3.562055826,520,1.954995513,,,520,10.47604275,
519,1.535071373,519,3.561193228,519,1.955405951,,,519,10.47611427,
518,1.525502563,518,3.564804316,518,1.960443377,,,518,10.48361492,
517,1.524327159,517,3.554587126,517,1.966373086,,,517,10.50037384,
516,1.522861004,516,3.525181532,516,1.965699673,,,516,10.50274658,
515,1.525757313,515,3.52952528,515,1.9621737,,,515,10.49625683,
514,1.525984287,514,3.527815342,514,1.951063633,,,514,10.47017574,
513,1.52160573,513,3.566466331,513,1.941989541,,,513,10.44508743,
512,1.515742183,512,3.570236921,512,1.941286802,,,512,10.44615555,
511,1.505229712,511,3.573279142,511,1.94588232,,,511,10.46151829,
510,1.50093317,510,3.564029217,510,1.956648946,,,510,10.47653866,
509,1.496463537,509,3.535235643,509,1.953903794,,,509,10.48034382,
508,1.504735112,508,3.532670021,508,1.954045892,,,508,10.47658825,
507,1.50211215,507,3.535477161,507,1.938566804,,,507,10.44522953,
506,1.499624729,506,3.56614852,506,1.934288502,,,506,10.42864132,
505,1.492578745,505,3.573352575,505,1.931964397,,,505,10.42123318,
504,1.48420608,504,3.576010942,504,1.936253905,,,504,10.44564533,
503,1.478809118,503,3.570695639,503,1.948360562,,,503,10.46109104,
502,1.474663734,502,3.538513184,502,1.945309877,,,502,10.46096516,
501,1.481923461,501,3.52707696,501,1.944372058,,,501,10.45576096,
500,1.477597713,500,3.533496618,500,1.934670806,,,500,10.43283081,
499,1.474472404,499,3.563235283,499,1.927355647,,,499,10.40572929,
498,1.469248772,498,3.576448202,498,1.924143195,,,498,10.40475464,
497,1.455886602,497,3.572208166,497,1.926382661,,,497,10.41834545,
496,1.452852488,496,3.573785067,496,1.937753916,,,496,10.44259262,
495,1.449449301,495,3.539376736,495,1.937329531,,,495,10.44599342,
494,1.450124145,494,3.532648802,494,1.935940027,,,494,10.43785667,
493,1.454005718,493,3.538485527,493,1.929666996,,,493,10.42053223,
492,1.444959044,492,3.560451746,492,1.918008327,,,492,10.39712811,
491,1.441827774,491,3.58138752,491,1.917699933,,,491,10.39974499,
490,1.42896533,490,3.57331109,490,1.923022985,,,490,10.39998341,
489,1.424893379,489,3.574048996,489,1.931464434,,,489,10.43366814,
488,1.418701053,488,3.536334276,488,1.934449196,,,488,10.42639923,
487,1.419519782,487,3.535154819,487,1.932119966,,,487,10.42922497,
486,1.416773796,486,3.534137487,486,1.923373938,,,486,10.41282749,
485,1.411478996,485,3.556875467,485,1.911695242,,,485,10.38404083,
484,1.405136347,484,3.575814962,484,1.910951138,,,484,10.3869381,
483,1.392922878,483,3.580018044,483,1.9122895,,,483,10.38292885,
482,1.384978771,482,3.570532322,482,1.923663735,,,482,10.4142828,
481,1.380333066,481,3.544788361,481,1.925953507,,,481,10.42097855,
480,1.378703713,480,3.534166574,480,1.925667763,,,480,10.41956902,
479,1.37635386,479,3.532924891,479,1.918796778,,,479,10.40582371,
478,1.3677423,478,3.554208994,478,1.906985402,,,478,10.37493515,
477,1.360014915,477,3.57853651,477,1.904287696,,,477,10.37085056,
476,1.347109914,476,3.572412252,476,1.905297279,,,476,10.37082386,
475,1.336889029,475,3.575930834,475,1.9157691,,,475,10.3976469,
474,1.329210281,474,3.543584347,474,1.921287537,,,474,10.39677048,
473,1.32626617,473,3.528252125,473,1.918663025,,,473,10.3888464,
472,1.320399523,472,3.526242733,472,1.915358901,,,472,10.38556957,
471,1.312338948,471,3.549042225,471,1.900102139,,,471,10.35079098,
470,1.301814675,470,3.569658041,470,1.896996617,,,470,10.34935856,
469,1.284549356,469,3.571371317,469,1.896110415,,,469,10.34953308,
468,1.275093198,468,3.571981192,468,1.908971786,,,468,10.3709898,
467,1.264916539,467,3.542655706,467,1.910222292,,,467,10.37861729,
466,1.259750485,466,3.526157856,466,1.911473989,,,466,10.37813377,
465,1.252558351,465,3.524207592,465,1.907991648,,,465,10.37094116,
464,1.240705609,464,3.544783592,464,1.891238213,,,464,10.33620071,
463,1.232182026,463,3.566954613,463,1.890517712,,,463,10.32629871,
462,1.2153337,462,3.567621469,462,1.891080141,,,462,10.33875561,
461,1.201459646,461,3.563318491,461,1.901228666,,,461,10.35879898,
460,1.190198302,460,3.539756775,460,1.906056643,,,460,10.36829185,
459,1.180963397,459,3.520312548,459,1.90424788,,,459,10.36304188,
458,1.17475009,458,3.519798517,458,1.900451422,,,458,10.3548708,
457,1.160754323,457,3.532873392,457,1.88730526,,,457,10.32585907,
456,1.148940206,456,3.555332184,456,1.885368109,,,456,10.31437969,
455,1.132538438,455,3.561000109,455,1.885853887,,,455,10.31999779,
454,1.116687775,454,3.554647684,454,1.894493937,,,454,10.34133339,
453,1.103634477,453,3.535369396,453,1.896785617,,,453,10.34358883,
452,1.093906999,452,3.504753113,452,1.89668262,,,452,10.33934689,
451,1.085699797,451,3.507827282,451,1.894665837,,,451,10.32970524,
450,1.074310541,450,3.512780428,450,1.880654454,,,450,10.29091835,
449,1.05967927,449,3.540219069,449,1.873946428,,,449,10.2761507,
448,1.042463064,448,3.544857979,448,1.877608895,,,448,10.28054619,
447,1.02317822,447,3.54161191,447,1.884350419,,,447,10.29543877,
446,1.010798454,446,3.528096437,446,1.888947964,,,446,10.30560684,
445,0.9988111258,445,3.491051912,445,1.887406945,,,445,10.30510426,
444,0.9924065471,444,3.491461992,444,1.886481047,,,444,10.30007935,
443,0.9773238301,443,3.492640018,443,1.875282764,,,443,10.26555061,
442,0.9652998447,442,3.526286125,442,1.86979866,,,442,10.25651169,
441,0.9498278499,441,3.524818182,441,1.869936824,,,441,10.24804974,
440,0.9306337833,440,3.525872946,440,1.878023863,,,440,10.27864361,
439,0.9199339151,439,3.509710312,439,1.887016535,,,439,10.28983784,
438,0.907741785,438,3.473709583,438,1.885545969,,,438,10.28864574,
437,0.9002455473,437,3.471502304,437,1.884501576,,,437,10.28269863,
436,0.8870477676,436,3.475656033,436,1.872019887,,,436,10.25322723,
435,0.8733163476,435,3.510181904,435,1.871114254,,,435,10.24907494,
434,0.8579725623,434,3.51032567,434,1.870901346,,,434,10.24482536,
433,0.8423265815,433,3.511599064,433,1.879861355,,,433,10.26433182,
432,0.8288143873,432,3.502928019,432,1.887148857,,,432,10.28376389,
431,0.8166379333,431,3.471073151,431,1.889860392,,,431,10.29243851,
430,0.8105497956,430,3.472854137,430,1.89116621,,,430,10.30471992,
429,0.7982624769,429,3.483988762,429,1.883352518,,,429,10.2944231,
428,0.7880321741,428,3.515042782,428,1.877720475,,,428,10.28485775,
427,0.773406148,427,3.524090767,427,1.882126331,,,427,10.29375744,
426,0.7588464022,426,3.532304287,426,1.894438028,,,426,10.32075977,
425,0.7469950914,425,3.520890713,425,1.908706903,,,425,10.35342407,
424,0.7349057794,424,3.48987627,424,1.905291319,,,424,10.36055279,
423,0.7280414104,423,3.495375872,423,1.911564708,,,423,10.37945843,
422,0.7172092795,422,3.510178566,422,1.904876351,,,422,10.37050629,
421,0.7067302465,421,3.536779881,421,1.901602149,,,421,10.36339283,
420,0.6927577257,420,3.550457239,420,1.903373718,,,420,10.37633801,
419,0.6783508062,419,3.560031891,419,1.91339612,,,419,10.40211201,
418,0.6676924229,418,3.561034441,418,1.928344011,,,418,10.43665028,
417,0.6540293097,417,3.532002211,417,1.932561636,,,417,10.45151234,
416,0.6474881172,416,3.52832818,416,1.935773849,,,416,10.46103096,
415,0.634357512,415,3.540162325,415,1.92866981,,,415,10.46285343,
414,0.6251465678,414,3.56951952,414,1.927304029,,,414,10.45890713,
413,0.6150959134,413,3.587701559,413,1.92959106,,,413,10.46978188,
412,0.598100841,412,3.587347746,412,1.93764627,,,412,10.49993229,
411,0.5899404883,411,3.591640234,411,1.95493722,,,411,10.5375824,
410,0.5805601478,410,3.562770844,410,1.9597435,,,410,10.56103516,
409,0.5719544291,409,3.559385538,409,1.964532733,,,409,10.57878017,
408,0.5631301403,408,3.569842577,408,1.960366607,,,408,10.58197212,
407,0.5533779263,407,3.600908041,407,1.951027513,,,407,10.57893467,
406,0.5421618819,406,3.61847496,406,1.957712173,,,406,10.59036732,
405,0.530766964,405,3.615888119,405,1.970139384,,,405,10.61307907,
404,0.5231130719,404,3.622046947,404,1.979956746,,,404,10.64494896,
403,0.5165287256,403,3.582465649,403,1.98850131,,,403,10.653368,
402,0.5092486739,402,3.576318264,402,1.983611703,,,402,10.66924667,
401,0.5018013716,401,3.580970287,401,1.982905149,,,401,10.65129089,
400,0.4981436729,400,3.594445467,400,1.971955061,,,400,10.62863731,

FePS3,
FePS3
Collection Time: 20/11/2023 11:36:33 AM
Operator Name  :
Scan Software Version: 4.10(464)
Parameter List :
Instrument                        Cary 5000
Instrument Version                1.12
Start (nm)                        2000.00
Stop (nm)                         400.00
X Mode                            Nanometers
Y Mode                            %T
Independent NIR                   On
Measurement Mode                  Auto
UV-Vis Scan Rate (nm/min)         600.000
UV-Vis Data Interval (nm)         1.00
UV-Vis Ave. Time (sec)            0.100
UV-Vis SBW (nm)                   2.000
NIR Scan Rate (nm/min)            1200.000
NIR Data Interval (nm)            2.00
NIR Ave. Time (sec)               0.100
NIR Energy                        3.00
Slit Height                       Full
Beam Mode                         Double
Signal-to-noise Mode              Off
UV Source                         On
Vis Source                        On
Third Source                      Off
Source Changeover (nm)            350.00
Detector Changeover (nm)          800.00
Grating Changeover (nm)           800.00
Baseline Correction               Off
Cycle Mode                        Off
Comments
Method Log     :
Method Name    :
Date/Time stamp: 20/11/2023 10:56:02 AM
Method Modifications:
X Start nm Changed: 20/11/2023 11:08:07 AM, Old: 800.00, New:1600.00
X Stop nm Changed: 20/11/2023 11:08:07 AM, Old: 200.00, New: 400.00
Y mode Changed: 20/11/2023 11:08:07 AM, Old:Abs, New:%T
Idpt Control Changed: 20/11/2023 11:08:07 AM, Old:0, New:1
NIR Scan Rate nm Changed: 20/11/2023 11:08:07 AM, Old:  600.000, New: 1200.000
NIR Interval nm Changed: 20/11/2023 11:08:07 AM, Old:     1.00, New:     2.00
Storage Changed: 20/11/2023 11:08:07 AM, Old:1, New:0
X Stop nm Changed: 20/11/2023 11:14:47 AM, Old: 400.00, New: 300.00
Saved as C:\users\Janek_Suffczynski\Leon_thiophosphates\20-11-2023.BSWSaved as C:\users\Janek_Suffczynski\Leon_thiophosphates\2023-11-20\d001_ZnO-Calibration.BSW
X Stop nm Changed: 20/11/2023 11:25:25 AM, Old: 300.00, New: 400.00
X Start nm Changed: 20/11/2023 11:36:26 AM, Old:1600.00, New:2000.00
End Method Modifications
<SBW (nm)> , 2.00
<Energy> , 69.18
<Slit height> , Full
<Current Wavelength> , 400.00

NiPS3,
NiPS3
Collection Time: 20/11/2023 11:40:05 AM
Operator Name  :
Scan Software Version: 4.10(464)
Parameter List :
Instrument                        Cary 5000
Instrument Version                1.12
Start (nm)                        2000.00
Stop (nm)                         400.00
X Mode                            Nanometers
Y Mode                            %T
Independent NIR                   On
Measurement Mode                  Auto
UV-Vis Scan Rate (nm/min)         600.000
UV-Vis Data Interval (nm)         1.00
UV-Vis Ave. Time (sec)            0.100
UV-Vis SBW (nm)                   2.000
NIR Scan Rate (nm/min)            1200.000
NIR Data Interval (nm)            2.00
NIR Ave. Time (sec)               0.100
NIR Energy                        3.00
Slit Height                       Full
Beam Mode                         Double
Signal-to-noise Mode              Off
UV Source                         On
Vis Source                        On
Third Source                      Off
Source Changeover (nm)            350.00
Detector Changeover (nm)          800.00
Grating Changeover (nm)           800.00
Baseline Correction               Off
Cycle Mode                        Off
Comments
Method Log     :
Method Name    :
Date/Time stamp: 20/11/2023 10:56:02 AM
Method Modifications:
X Start nm Changed: 20/11/2023 11:08:07 AM, Old: 800.00, New:1600.00
X Stop nm Changed: 20/11/2023 11:08:07 AM, Old: 200.00, New: 400.00
Y mode Changed: 20/11/2023 11:08:07 AM, Old:Abs, New:%T
Idpt Control Changed: 20/11/2023 11:08:07 AM, Old:0, New:1
NIR Scan Rate nm Changed: 20/11/2023 11:08:07 AM, Old:  600.000, New: 1200.000
NIR Interval nm Changed: 20/11/2023 11:08:07 AM, Old:     1.00, New:     2.00
Storage Changed: 20/11/2023 11:08:07 AM, Old:1, New:0
X Stop nm Changed: 20/11/2023 11:14:47 AM, Old: 400.00, New: 300.00
Saved as C:\users\Janek_Suffczynski\Leon_thiophosphates\20-11-2023.BSWSaved as C:\users\Janek_Suffczynski\Leon_thiophosphates\2023-11-20\d001_ZnO-Calibration.BSW
X Stop nm Changed: 20/11/2023 11:25:25 AM, Old: 300.00, New: 400.00
X Start nm Changed: 20/11/2023 11:36:26 AM, Old:1600.00, New:2000.00
End Method Modifications
<SBW (nm)> , 2.00
<Energy> , 69.18
<Slit height> , Full
<Current Wavelength> , 400.00

CrPS4,
CrPS4
Collection Time: 20/11/2023 11:44:08 AM
Operator Name  :
Scan Software Version: 4.10(464)
Parameter List :
Instrument                        Cary 5000
Instrument Version                1.12
Start (nm)                        2000.00
Stop (nm)                         400.00
X Mode                            Nanometers
Y Mode                            %T
Independent NIR                   On
Measurement Mode                  Auto
UV-Vis Scan Rate (nm/min)         600.000
UV-Vis Data Interval (nm)         1.00
UV-Vis Ave. Time (sec)            0.100
UV-Vis SBW (nm)                   2.000
NIR Scan Rate (nm/min)            1200.000
NIR Data Interval (nm)            2.00
NIR Ave. Time (sec)               0.100
NIR Energy                        3.00
Slit Height                       Full
Beam Mode                         Double
Signal-to-noise Mode              Off
UV Source                         On
Vis Source                        On
Third Source                      Off
Source Changeover (nm)            350.00
Detector Changeover (nm)          800.00
Grating Changeover (nm)           800.00
Baseline Correction               Off
Cycle Mode                        Off
Comments
Method Log     :
Method Name    :
Date/Time stamp: 20/11/2023 10:56:02 AM
Method Modifications:
X Start nm Changed: 20/11/2023 11:08:07 AM, Old: 800.00, New:1600.00
X Stop nm Changed: 20/11/2023 11:08:07 AM, Old: 200.00, New: 400.00
Y mode Changed: 20/11/2023 11:08:07 AM, Old:Abs, New:%T
Idpt Control Changed: 20/11/2023 11:08:07 AM, Old:0, New:1
NIR Scan Rate nm Changed: 20/11/2023 11:08:07 AM, Old:  600.000, New: 1200.000
NIR Interval nm Changed: 20/11/2023 11:08:07 AM, Old:     1.00, New:     2.00
Storage Changed: 20/11/2023 11:08:07 AM, Old:1, New:0
X Stop nm Changed: 20/11/2023 11:14:47 AM, Old: 400.00, New: 300.00
Saved as C:\users\Janek_Suffczynski\Leon_thiophosphates\20-11-2023.BSWSaved as C:\users\Janek_Suffczynski\Leon_thiophosphates\2023-11-20\d001_ZnO-Calibration.BSW
X Stop nm Changed: 20/11/2023 11:25:25 AM, Old: 300.00, New: 400.00
X Start nm Changed: 20/11/2023 11:36:26 AM, Old:1600.00, New:2000.00
End Method Modifications
<SBW (nm)> , 2.00
<Energy> , 69.18
<Slit height> , Full
<Current Wavelength> , 400.00

MnPS3,
MnPS3
Collection Time: 20/11/2023 11:46:58 AM
Operator Name  :
Scan Software Version: 4.10(464)
Parameter List :
Instrument                        Cary 5000
Instrument Version                1.12
Start (nm)                        2000.00
Stop (nm)                         400.00
X Mode                            Nanometers
Y Mode                            %T
Independent NIR                   On
Measurement Mode                  Auto
UV-Vis Scan Rate (nm/min)         600.000
UV-Vis Data Interval (nm)         1.00
UV-Vis Ave. Time (sec)            0.100
UV-Vis SBW (nm)                   2.000
NIR Scan Rate (nm/min)            1200.000
NIR Data Interval (nm)            2.00
NIR Ave. Time (sec)               0.100
NIR Energy                        3.00
Slit Height                       Full
Beam Mode                         Double
Signal-to-noise Mode              Off
UV Source                         On
Vis Source                        On
Third Source                      Off
Source Changeover (nm)            350.00
Detector Changeover (nm)          800.00
Grating Changeover (nm)           800.00
Baseline Correction               Off
Cycle Mode                        Off
Comments
Method Log     :
Method Name    :
Date/Time stamp: 20/11/2023 10:56:02 AM
Method Modifications:
X Start nm Changed: 20/11/2023 11:08:07 AM, Old: 800.00, New:1600.00
X Stop nm Changed: 20/11/2023 11:08:07 AM, Old: 200.00, New: 400.00
Y mode Changed: 20/11/2023 11:08:07 AM, Old:Abs, New:%T
Idpt Control Changed: 20/11/2023 11:08:07 AM, Old:0, New:1
NIR Scan Rate nm Changed: 20/11/2023 11:08:07 AM, Old:  600.000, New: 1200.000
NIR Interval nm Changed: 20/11/2023 11:08:07 AM, Old:     1.00, New:     2.00
Storage Changed: 20/11/2023 11:08:07 AM, Old:1, New:0
X Stop nm Changed: 20/11/2023 11:14:47 AM, Old: 400.00, New: 300.00
Saved as C:\users\Janek_Suffczynski\Leon_thiophosphates\20-11-2023.BSWSaved as C:\users\Janek_Suffczynski\Leon_thiophosphates\2023-11-20\d001_ZnO-Calibration.BSW
X Stop nm Changed: 20/11/2023 11:25:25 AM, Old: 300.00, New: 400.00
X Start nm Changed: 20/11/2023 11:36:26 AM, Old:1600.00, New:2000.00
End Method Modifications
<SBW (nm)> , 6.48
<Energy> , 3.00
<Slit height> , Full
<Current Wavelength> , 1030.00

Hole,
Hole
Collection Time: 20/11/2023 11:49:49 AM
Operator Name  :
Scan Software Version: 4.10(464)
Parameter List :
Instrument                        Cary 5000
Instrument Version                1.12
Start (nm)                        2000.00
Stop (nm)                         400.00
X Mode                            Nanometers
Y Mode                            %T
Independent NIR                   On
Measurement Mode                  Auto
UV-Vis Scan Rate (nm/min)         600.000
UV-Vis Data Interval (nm)         1.00
UV-Vis Ave. Time (sec)            0.100
UV-Vis SBW (nm)                   2.000
NIR Scan Rate (nm/min)            1200.000
NIR Data Interval (nm)            2.00
NIR Ave. Time (sec)               0.100
NIR Energy                        3.00
Slit Height                       Full
Beam Mode                         Double
Signal-to-noise Mode              Off
UV Source                         On
Vis Source                        On
Third Source                      Off
Source Changeover (nm)            350.00
Detector Changeover (nm)          800.00
Grating Changeover (nm)           800.00
Baseline Correction               Off
Cycle Mode                        Off
Comments
Method Log     :
Method Name    :
Date/Time stamp: 20/11/2023 10:56:02 AM
Method Modifications:
X Start nm Changed: 20/11/2023 11:08:07 AM, Old: 800.00, New:1600.00
X Stop nm Changed: 20/11/2023 11:08:07 AM, Old: 200.00, New: 400.00
Y mode Changed: 20/11/2023 11:08:07 AM, Old:Abs, New:%T
Idpt Control Changed: 20/11/2023 11:08:07 AM, Old:0, New:1
NIR Scan Rate nm Changed: 20/11/2023 11:08:07 AM, Old:  600.000, New: 1200.000
NIR Interval nm Changed: 20/11/2023 11:08:07 AM, Old:     1.00, New:     2.00
Storage Changed: 20/11/2023 11:08:07 AM, Old:1, New:0
X Stop nm Changed: 20/11/2023 11:14:47 AM, Old: 400.00, New: 300.00
Saved as C:\users\Janek_Suffczynski\Leon_thiophosphates\20-11-2023.BSWSaved as C:\users\Janek_Suffczynski\Leon_thiophosphates\2023-11-20\d001_ZnO-Calibration.BSW
X Stop nm Changed: 20/11/2023 11:25:25 AM, Old: 300.00, New: 400.00
X Start nm Changed: 20/11/2023 11:36:26 AM, Old:1600.00, New:2000.00
End Method Modifications
<SBW (nm)> , 2.00
<Energy> , 69.18
<Slit height> , Full
<Current Wavelength> , 400.00

