Hole,,MnPS3,,CrPS4,,NiPS3,,FePS3,,
Wavelength (nm),%T,Wavelength (nm),%T,Wavelength (nm),%T,Wavelength (nm),%T,Wavelength (nm),%T,
2000,42.40940475,2000,32.58353424,2000,32.2461586,2000,50.49124908,2000,25.60941505,
1998,42.59746552,1998,32.56676102,1998,32.04105377,1998,50.51251221,1998,25.64695549,
1996,42.57241821,1996,32.44515228,1996,32.10200882,1996,50.49007416,1996,25.72008896,
1994,42.50083923,1994,32.47235107,1994,32.16192627,1994,50.53219604,1994,25.84409714,
1992,42.37666321,1992,32.48682785,1992,32.39690399,1992,50.55953979,1992,25.87184906,
1990,42.43073654,1990,32.58272552,1990,32.583004,1990,50.62733459,1990,25.88635445,
1988,42.4379921,1988,32.78533936,1988,32.54386902,1988,50.66867447,1988,25.86831474,
1986,42.43047714,1986,32.80225372,1986,32.414608,1986,50.66339493,1986,25.78902626,
1984,42.58108139,1984,32.72042465,1984,32.19894409,1984,50.68942261,1984,25.80261803,
1982,42.62999725,1982,32.50357819,1982,32.23945236,1982,50.69283295,1982,25.86901093,
1980,42.62950134,1980,32.48365784,1980,32.26929092,1980,50.72758102,1980,26.01132965,
1978,42.47621536,1978,32.49278259,1978,32.49193192,1978,50.74490738,1978,26.04615784,
1976,42.4417038,1976,32.53773499,1976,32.74085236,1976,50.80161667,1976,26.0595417,
1974,42.5394516,1974,32.70291138,1974,32.69824219,1974,50.87065125,1974,26.04154968,
1972,42.67621994,1972,32.70280075,1972,32.54253387,1972,50.89317703,1972,25.96555328,
1970,42.84904861,1970,32.71141434,1970,32.28044891,1970,50.89590454,1970,25.97126961,
1968,42.83438492,1968,32.60051727,1968,32.34885788,1968,50.89225769,1968,26.02921486,
1966,42.81912613,1966,32.61573792,1966,32.42012024,1966,50.95820999,1966,26.1673336,
1964,42.72213745,1964,32.69904709,1964,32.61478424,1964,51.02441406,1964,26.23262978,
1962,42.71385956,1962,32.83867264,1962,32.85712433,1962,51.05368042,1962,26.24757576,
1960,42.68408203,1960,33.10557175,1960,32.83085632,1960,51.12328339,1960,26.22303009,
1958,42.71892929,1958,33.09554291,1958,32.74415588,1958,51.11745453,1958,26.13561249,
1956,42.93919754,1956,33.02131271,1956,32.31583405,1956,51.09006882,1956,26.16030502,
1954,42.97446823,1954,32.81408691,1954,32.36658096,1954,51.01118088,1954,26.21783257,
1952,42.91353226,1952,32.76610565,1952,32.40988159,1952,51.03469086,1952,26.36215973,
1950,42.72075653,1950,32.7621727,1950,32.65380478,1950,51.1183548,1950,26.44268227,
1948,42.79027939,1948,32.76752472,1948,32.87995148,1948,51.22526169,1948,26.48996353,
1946,42.94810486,1946,32.86894608,1946,32.79150009,1946,51.23503113,1946,26.46390533,
1944,42.86174774,1944,32.86464691,1944,32.73804474,1944,51.19675446,1944,26.33208275,
1942,42.98455811,1942,32.80036926,1942,32.42444611,1942,51.18597031,1942,26.35064507,
1940,43.13151169,1940,32.63743973,1940,32.42733383,1940,51.18430328,1940,26.43674278,
1938,43.09074402,1938,32.48138428,1938,32.32791901,1938,51.02028275,1938,26.59681129,
1936,42.92064667,1936,32.67388153,1936,32.57601547,1936,51.10582733,1936,26.63618279,
1934,42.85331345,1934,32.83384705,1934,32.9045105,1934,51.23785019,1934,26.66114807,
1932,42.94599152,1932,33.01889801,1932,32.83969498,1932,51.352005,1932,26.69881058,
1930,43.06921005,1930,33.08657837,1930,32.78505707,1930,51.37102509,1930,26.66126251,
1928,43.12446213,1928,33.08567047,1928,32.50653458,1928,51.36249542,1928,26.53159523,
1926,43.17509842,1926,33.03104019,1926,32.56996155,1926,51.41599655,1926,26.54689026,
1924,43.15196991,1924,32.83092499,1924,32.50447464,1924,51.41632462,1924,26.77605057,
1922,43.05731201,1922,32.9066391,1922,32.66559982,1922,51.44166183,1922,26.86328888,
1920,42.95009613,1920,32.88176727,1920,32.89603043,1920,51.38042068,1920,26.74621964,
1918,43.04282379,1918,33.11639786,1918,32.99069977,1918,51.51638794,1918,26.71974945,
1916,43.21943665,1916,33.18809128,1916,33.0194664,1916,51.67284012,1916,26.76297379,
1914,43.43662262,1914,33.31826401,1914,32.98182678,1914,52.0422287,1914,26.74007416,
1912,43.50894547,1912,33.352314,1912,33.08546448,1912,52.27995682,1912,26.66334534,
1910,43.46819305,1910,33.34702301,1910,33.24224854,1910,52.50611877,1910,26.72203255,
1908,43.36753845,1908,33.43730927,1908,33.33325195,1908,52.58472061,1908,26.82320786,
1906,43.22933197,1906,33.43241882,1906,33.64060974,1906,52.60506439,1906,26.74269104,
1904,43.32048798,1904,33.68912888,1904,33.75274658,1904,52.70643997,1904,26.62344551,
1902,43.39400482,1902,33.76871109,1902,33.70061874,1902,52.84349442,1902,26.52414131,
1900,43.58771515,1900,33.81837845,1900,33.53554153,1900,53.01390839,1900,26.59346199,
1898,43.63196564,1898,33.79073715,1898,33.5971489,1898,53.18118286,1898,26.57915688,
1896,43.53541946,1896,33.62944794,1896,33.56455994,1896,53.29476166,1896,26.53691483,
1894,43.39233017,1894,33.37972641,1894,33.30838013,1894,52.81113815,1894,26.62564278,
1892,43.09362793,1892,33.08927155,1892,33.26023865,1892,52.25509262,1892,26.66814995,
1890,42.89744949,1890,32.819767,1890,32.80648041,1890,51.54667664,1890,26.60115623,
1888,43.00625992,1888,32.62852478,1888,32.44556046,1888,50.93611908,1888,26.54773521,
1886,43.15921783,1886,32.51613235,1886,32.04401779,1886,50.78927231,1886,26.79216576,
1884,43.2774353,1884,32.72321701,1884,32.17692566,1884,51.02474213,1884,27.00661087,
1882,43.36377716,1882,32.88683319,1882,32.50035858,1882,51.53719711,1882,27.14777946,
1880,43.43181229,1880,33.1724968,1880,32.8129425,1880,52.07653046,1880,27.23115349,
1878,43.32071686,1878,33.19319153,1878,33.10602188,1878,52.17822266,1878,27.23621368,
1876,43.15208435,1876,33.30853271,1876,33.19061279,1876,52.20957565,1876,27.09616661,
1874,43.24106216,1874,33.34457397,1874,33.17209625,1874,52.16764069,1874,26.84550858,
1872,43.50222397,1872,33.28511047,1872,32.97182846,1872,52.26753235,1872,26.84827232,
1870,43.84575653,1870,33.59318924,1870,33.27615738,1870,52.87026215,1870,26.99550629,
1868,43.84079742,1868,33.79116821,1868,33.76261139,1868,53.71359634,1868,27.03256035,
1866,43.75730133,1866,33.69860077,1866,33.73165512,1866,53.74535751,1866,26.99030876,
1864,43.6048851,1864,33.54328918,1864,33.87084198,1864,53.41526794,1864,26.92282867,
1862,43.3602829,1862,33.47254562,1862,33.73713684,1862,53.10282898,1862,26.74752426,
1860,43.31241226,1860,33.16297913,1860,33.18637466,1860,52.41193771,1860,26.64608955,
1858,43.60710526,1858,33.18201828,1858,32.96759033,1858,52.15014267,1858,26.85164261,
1856,43.58612061,1856,33.13644791,1856,32.66620255,1856,52.24052048,1856,26.93501663,
1854,43.54481888,1854,32.95760727,1854,32.62426758,1854,52.07208252,1854,27.00757599,
1852,43.66556549,1852,33.20008087,1852,32.95345688,1852,52.28570175,1852,27.2806282,
1850,43.47109604,1850,33.31450272,1850,33.34962463,1850,52.75465393,1850,27.26897049,
1848,43.59281921,1848,33.36114883,1848,33.36994171,1848,52.73270035,1848,27.25106812,
1846,43.70466614,1846,33.72741318,1846,33.70360184,1846,53.08081055,1846,27.20898056,
1844,43.70213699,1844,33.72855377,1844,33.58657455,1844,53.40255356,1844,27.00072289,
1842,43.96096802,1842,33.60085678,1842,33.3067894,1842,53.34745789,1842,26.97889519,
1840,44.07609558,1840,33.51098251,1840,33.52919388,1840,53.52215576,1840,27.13309479,
1838,43.80076599,1838,33.49279022,1838,33.5572052,1838,53.56613541,1838,27.09974098,
1836,43.79166412,1836,33.52212524,1836,33.85851669,1836,53.55998993,1836,27.05034256,
1834,43.96347046,1834,33.78213501,1834,34.25282288,1834,53.98563766,1834,27.14622307,
1832,43.95608139,1832,34.04095078,1832,34.24702835,1832,54.28021622,1832,27.07150269,
1830,44.05275345,1830,34.01653671,1830,33.98963165,1830,54.16327667,1830,26.91486549,
1828,44.00863266,1828,33.96206665,1828,33.70693207,1828,54.05781937,1828,26.83556747,
1826,44.06740189,1826,33.70991516,1826,33.66419601,1826,53.92034531,1826,26.85486412,
1824,44.0992012,1824,33.75033188,1824,33.77218628,1824,53.94802094,1824,27.08016586,
1822,43.93482971,1822,33.75625229,1822,34.0030632,1822,54.0443306,1822,27.15688705,
1820,43.87754059,1820,33.76565552,1820,34.13019943,1820,53.96851349,1820,27.10475349,
1818,43.99266815,1818,33.94916916,1818,34.14869308,1818,54.04280853,1818,27.03297806,
1816,44.04903793,1816,33.94503784,1816,33.90430069,1816,54.06829071,1816,26.96390152,
1814,44.26187134,1814,33.90211487,1814,33.73662186,1814,54.05620956,1814,27.02102089,
1812,44.25643921,1812,33.72878647,1812,33.6999321,1812,54.09611511,1812,27.09279442,
1810,44.15922546,1810,33.62703323,1810,33.72716141,1810,54.00957489,1810,27.14390755,
1808,44.06988907,1808,33.61223602,1808,33.8751297,1808,53.94631195,1808,27.22121811,
1806,44.04679108,1806,33.68843079,1806,34.10572052,1806,53.97451019,1806,27.2890873,
1804,44.1216011,1804,33.85506439,1804,34.02748489,1804,53.99135971,1804,27.24365616,
1802,44.18928909,1802,33.82806778,1802,33.88847733,1802,53.95301056,1802,27.14480209,
1800,44.38022232,1800,33.81847382,1800,33.59272003,1800,53.9068222,1800,27.16154671,
1798,44.42424393,1798,33.65480423,1798,33.59578323,1798,53.86841202,1798,27.24410248,
1796,44.40926361,1796,33.60108566,1796,33.65129852,1796,53.87909317,1796,27.38858223,
1794,44.27812195,1794,33.63042831,1794,33.82042694,1794,53.84960938,1794,27.44499779,
1792,44.22784424,1792,33.71064758,1792,34.03258514,1792,53.83298874,1792,27.45880127,
1790,44.26866913,1790,33.88449097,1790,33.94586563,1790,53.81069946,1790,27.42464828,
1788,44.35923004,1788,33.87269592,1788,33.80038834,1788,53.73293304,1788,27.3354702,
1786,44.50523376,1786,33.8405571,1786,33.43361664,1786,53.64911652,1786,27.35800362,
1784,44.45586395,1784,33.61891174,1784,33.34096527,1784,53.46477127,1784,27.41074944,
1782,44.39876175,1782,33.50236893,1782,33.34750748,1782,53.36317444,1782,27.56100082,
1780,44.28714371,1780,33.51184845,1780,33.49934387,1780,53.34283066,1780,27.64092445,
1778,44.25416946,1778,33.57640839,1778,33.80251694,1778,53.40217209,1778,27.67972374,
1776,44.30195618,1776,33.78292465,1776,33.80246353,1776,53.52748489,1776,27.65062714,
1774,44.41876984,1774,33.79058075,1774,33.7771225,1774,53.59916687,1774,27.5172596,
1772,44.6070137,1772,33.77545547,1772,33.5067215,1772,53.66728973,1772,27.48838615,
1770,44.63995743,1770,33.63357925,1770,33.55315018,1770,53.66419983,1770,27.49390221,
1768,44.66762161,1768,33.6203804,1768,33.67215729,1768,53.75474167,1768,27.61277199,
1766,44.55807495,1766,33.71697998,1766,33.87778854,1766,53.86694717,1766,27.64624596,
1764,44.51028824,1764,33.87512589,1764,34.2422142,1764,53.98234558,1764,27.61932373,
1762,44.55834198,1762,34.13897324,1762,34.25345612,1762,54.09478378,1762,27.55366898,
1760,44.59387207,1760,34.16214752,1760,34.14355469,1760,54.05291748,1760,27.39705658,
1758,44.68917084,1758,34.08521271,1758,33.72472382,1758,53.90524292,1758,27.34886932,
1756,44.60367584,1756,33.78177261,1756,33.53782654,1756,53.57568359,1756,27.32315445,
1754,44.42647552,1754,33.48215866,1754,33.38116455,1754,53.23029709,1754,27.42429161,
1752,44.18314743,1752,33.28139877,1752,33.16235352,1752,52.79242325,1752,27.46470261,
1750,43.96416855,1750,33.02941895,1750,33.1411171,1750,52.30635452,1750,27.44750977,
1748,43.85638046,1748,32.9382782,1748,32.8640976,1748,51.91143036,1748,27.4017601,
1746,43.80245972,1746,32.81758499,1746,32.61777878,1746,51.59062195,1746,27.25875092,
1744,43.86458969,1744,32.70026779,1744,32.26003647,1744,51.44215393,1744,27.2153492,
1742,43.77415085,1742,32.56629181,1742,32.22407532,1742,51.41621399,1742,27.17241096,
1740,43.6499176,1740,32.51141739,1740,32.3385582,1740,51.50133896,1740,27.1542778,
1738,43.46366119,1738,32.62210083,1738,32.49294662,1738,51.62883377,1738,27.1043663,
1736,43.35940933,1736,32.75601959,1736,32.91423798,1736,51.80491638,1736,26.98464394,
1734,43.44622421,1734,33.07530975,1734,33.08744812,1734,52.12405777,1734,26.87271881,
1732,43.59617233,1732,33.34788132,1732,33.28633118,1732,52.46144104,1732,26.68955612,
1730,43.84774017,1730,33.58710861,1730,33.35883331,1730,52.91517258,1730,26.59683609,
1728,43.9990921,1728,33.68193054,1728,33.5154686,1728,53.34608078,1728,26.55364227,
1726,44.08545685,1726,33.75999069,1726,33.79307938,1726,53.71294022,1726,26.61159706,
1724,44.10484695,1724,33.90525818,1724,33.98230362,1724,53.9420433,1724,26.65716934,
1722,44.14134216,1722,33.96489334,1722,34.4008522,1722,54.02457047,1722,26.65022659,
1720,44.36940384,1720,34.13711166,1720,34.4417038,1720,54.11582184,1720,26.70211411,
1718,44.53435135,1718,34.21706772,1718,34.38184738,1718,54.13128281,1718,26.68541145,
1716,44.76593018,1716,34.18480301,1716,34.12506104,1716,54.13874435,1716,26.72747421,
1714,44.91121292,1714,34.08636093,1714,33.98303223,1714,54.09183502,1714,26.81391907,
1712,44.92724991,1712,33.99557495,1712,34.01823044,1712,54.06614685,1712,26.96331787,
1710,44.91534805,1710,34.0521698,1710,34.08763885,1710,54.05771255,1710,27.08436584,
1708,44.83040237,1708,34.09401321,1708,34.40962601,1708,54.03413773,1708,27.13190269,
1706,44.89569092,1706,34.2781105,1706,34.43168259,1706,54.05666733,1706,27.15340805,
1704,44.95395279,1704,34.36386108,1704,34.3404274,1704,53.99224854,1704,27.07657433,
1702,45.06126022,1702,34.31478119,1702,34.06194305,1702,53.90714264,1702,27.04471016,
1700,45.12159348,1700,34.24511719,1700,33.84141159,1700,53.81218719,1700,27.07432747,
1698,45.10107803,1698,34.1154747,1698,33.85793686,1698,53.70733643,1698,27.1668129,
1696,45.06858444,1696,34.12003326,1696,33.91618729,1696,53.66172028,1696,27.27983284,
1694,44.96099472,1694,34.1109581,1694,34.20266342,1694,53.65436172,1694,27.27474213,
1692,44.99206924,1692,34.22080231,1692,34.27480316,1692,53.68490982,1692,27.2664547,
1690,45.0382576,1690,34.27983093,1690,34.20583725,1690,53.63144684,1690,27.1761322,
1688,45.13808823,1688,34.22368622,1688,33.96605301,1688,53.56896973,1688,27.09709358,
1686,45.22132874,1686,34.16054916,1686,33.74864578,1686,53.49683762,1686,27.10330582,
1684,45.22756195,1684,34.03678894,1684,33.80026627,1684,53.42613602,1684,27.16410828,
1682,45.19097137,1682,34.05852127,1682,33.86171341,1682,53.42351151,1682,27.26823044,
1680,45.04873276,1680,34.13115311,1680,34.16056824,1680,53.42342377,1680,27.26446342,
1678,45.08281708,1678,34.27236938,1678,34.28551865,1678,53.44770432,1678,27.24095535,
1676,45.11025238,1676,34.39652634,1676,34.2190361,1676,53.41465378,1676,27.14434052,
1674,45.16384125,1674,34.40711212,1674,34.01821899,1674,53.36418915,1674,27.05101395,
1672,45.2869606,1672,34.39913177,1672,33.78646088,1672,53.31282043,1672,27.0360775,
1670,45.3014679,1670,34.24295044,1670,33.8430748,1670,53.23736191,1670,27.08355522,
1668,45.23464584,1668,34.25741959,1668,33.93519974,1668,53.25088501,1668,27.18991852,
1666,45.08365631,1666,34.28645325,1666,34.2088623,1666,53.2708168,1666,27.17821312,
1664,45.13034058,1664,34.36049271,1664,34.36634064,1664,53.30880737,1664,27.15162086,
1662,45.1553154,1662,34.45450211,1662,34.29927063,1662,53.3205986,1662,27.06668472,
1660,45.21867752,1660,34.44320297,1660,34.12855148,1660,53.28948593,1660,26.95225716,
1658,45.40443802,1658,34.40033722,1658,33.88093185,1658,53.23106766,1658,26.94902802,
1656,45.40380859,1656,34.22554016,1656,33.9332428,1656,53.16261673,1656,26.99971771,
1654,45.33946991,1654,34.23330688,1654,34.03113937,1654,53.1915741,1654,27.103508,
1652,45.19289017,1652,34.29170609,1652,34.27323151,1652,53.21353149,1652,27.10528946,
1650,45.19702911,1650,34.39913559,1650,34.44760513,1650,53.23538971,1650,27.1024704,
1648,45.19201279,1648,34.56909561,1648,34.39642715,1648,53.26568985,1648,27.01221466,
1646,45.26612091,1646,34.58539581,1646,34.2530632,1646,53.24376297,1646,26.88741302,
1644,45.41824722,1644,34.56843567,1644,33.95896149,1644,53.21652985,1644,26.88708687,
1642,45.40652847,1642,34.40602493,1642,34.01556396,1642,53.16207886,1642,26.92728424,
1640,45.40403366,1640,34.37091827,1640,34.09144974,1640,53.1758728,1640,27.03175545,
1638,45.27389145,1638,34.35575485,1638,34.2930603,1638,53.19942856,1638,27.03596687,
1636,45.24488831,1636,34.38922882,1636,34.52952957,1636,53.23886108,1636,27.01280975,
1634,45.28771591,1634,34.52925491,1634,34.48758698,1634,53.26997757,1634,26.93580055,
1632,45.37758636,1632,34.51985168,1632,34.36314774,1632,53.24995041,1632,26.80831337,
1630,45.53302002,1630,34.47796631,1630,34.05108643,1630,53.23615265,1630,26.78510284,
1628,45.53802872,1628,34.32582092,1628,34.08571243,1628,53.17856598,1628,26.81311417,
1626,45.50438309,1626,34.30604172,1626,34.15192032,1626,53.18392563,1626,26.92894936,
1624,45.35115814,1624,34.35580063,1624,34.33972931,1624,53.22082138,1624,26.93261147,
1622,45.32781219,1622,34.45985413,1622,34.62721634,1622,53.26098633,1622,26.91189384,
1620,45.35486603,1620,34.65556335,1620,34.57700729,1620,53.30647278,1620,26.84950829,
1618,45.40810394,1618,34.66897964,1618,34.45207214,1618,53.29974747,1618,26.70072556,
1616,45.60954285,1616,34.65316772,1616,34.17581177,1616,53.28343964,1616,26.67761993,
1614,45.60131454,1614,34.4639473,1614,34.18635559,1614,53.23261642,1614,26.70010567,
1612,45.55171585,1612,34.40533066,1612,34.2506218,1612,53.25602341,1612,26.80740356,
1610,45.43854523,1610,34.42578506,1610,34.42739105,1610,53.27203369,1610,26.83157921,
1608,45.39423752,1608,34.46324921,1608,34.724617,1608,53.30643082,1608,26.81455612,
1606,45.43889236,1606,34.64647675,1606,34.70874023,1606,53.35938263,1606,26.75505066,
1604,45.52703094,1604,34.65623856,1604,34.61192322,1604,53.32854843,1604,26.61393547,
1602,45.69870758,1602,34.62686157,1602,34.30021286,1602,53.32157516,1602,26.59112549,
1600,45.71162415,1600,34.4716568,1600,34.29795456,1600,53.26736069,1600,26.58983803,
1598,45.70597076,1598,34.40486908,1598,34.3803215,1598,53.27300262,1598,26.70325279,
1596,45.55895996,1596,34.45675278,1596,34.51652145,1596,53.30204773,1596,26.73295212,
1594,45.48718262,1594,34.55396271,1594,34.85378265,1594,53.31439209,1594,26.70879936,
1592,45.55511856,1592,34.76327896,1592,34.85375214,1592,53.36978912,1592,26.65458679,
1590,45.59580231,1590,34.81112289,1590,34.78067398,1590,53.35548019,1590,26.51570511,
1588,45.75553131,1588,34.80079651,1588,34.46413422,1588,53.32941437,1588,26.48090935,
1586,45.78391647,1586,34.62668991,1586,34.4197731,1586,53.25068665,1586,26.48431015,
1584,45.76176071,1584,34.52071762,1584,34.49354172,1584,53.25553513,1584,26.58541107,
1582,45.65232468,1582,34.53629303,1582,34.61555862,1582,53.26751328,1582,26.6147728,
1580,45.59528351,1580,34.53987122,1580,34.94974136,1580,53.28720093,1580,26.60686874,
1578,45.64650345,1578,34.69820786,1578,34.94329453,1578,53.36368561,1578,26.55810928,
1576,45.70306778,1576,34.73585129,1576,34.87372208,1576,53.32644653,1576,26.3964653,
1574,45.85659409,1574,34.71992874,1574,34.56077957,1574,53.2834053,1574,26.36366272,
1572,45.87043381,1572,34.58250809,1572,34.4870224,1572,53.21059418,1572,26.35573196,
1570,45.85045624,1570,34.50976563,1570,34.53109741,1570,53.17857361,1570,26.45160484,
1568,45.74760437,1568,34.56861115,1568,34.63108826,1568,53.18196487,1568,26.50054741,
1566,45.66809464,1566,34.62422943,1566,34.96880341,1566,53.18836975,1566,26.47066689,
1564,45.7366333,1564,34.76921463,1564,34.97793198,1564,53.24415588,1564,26.42936134,
1562,45.77280426,1562,34.7869339,1562,34.88244629,1562,53.20161057,1562,26.27615929,
1560,45.91638565,1560,34.71957779,1560,34.57653046,1560,53.14889526,1560,26.21299934,
1558,45.96587753,1558,34.55525208,1558,34.45233536,1558,53.06714249,1558,26.21143723,
1556,45.92081451,1556,34.44260025,1556,34.49106979,1556,53.02334976,1556,26.29813004,
1554,45.83005905,1554,34.48054886,1554,34.57096481,1554,53.00039673,1554,26.34580231,
1552,45.75867462,1552,34.51367569,1552,34.88731384,1552,53.00921249,1552,26.31856537,
1550,45.80343246,1550,34.69194031,1550,34.89879227,1550,53.0514946,1550,26.27284241,
1548,45.84783173,1548,34.73585892,1548,34.79623413,1548,52.99534225,1548,26.1236496,
1546,45.95740891,1546,34.63386536,1546,34.45334244,1546,52.92254639,1546,26.03866959,
1544,45.93177032,1544,34.28212357,1544,34.00772095,1544,52.74595642,1544,25.9956131,
1542,45.3437233,1542,33.54479599,1542,33.00121307,1542,52.18325806,1542,25.89047813,
1540,44.82266998,1540,33.04423141,1540,32.2243042,1540,51.71493149,1540,25.82736397,
1538,44.3488884,1538,32.56775284,1538,31.85168839,1538,51.2620163,1538,25.70149231,
1536,44.09260559,1536,32.35943604,1536,31.27345657,1536,50.98536682,1536,25.59720039,
1534,43.78974915,1534,31.93533325,1534,30.46897125,1534,50.51920319,1534,25.44480896,
1532,43.62796402,1532,31.42312431,1532,29.55917931,1532,50.00909424,1532,25.34274101,
1530,43.35141373,1530,30.75025749,1530,28.57063103,1530,49.28514481,1530,25.28721619,
1528,43.04359055,1528,30.05337143,1528,27.91757202,1528,48.5557518,1528,25.27346992,
1526,42.78126526,1526,29.66476059,1526,27.43192863,1526,48.04761124,1526,25.28657341,
1524,42.46987534,1524,29.25143623,1524,27.09246254,1524,47.55061722,1524,25.25690842,
1522,42.26784134,1522,29.02981377,1522,26.6454792,1522,47.2200737,1522,25.21576309,
1520,42.11191177,1520,28.77627945,1520,26.08361816,1520,46.80413437,1520,25.13882446,
1518,41.93480301,1518,28.30935478,1518,25.34337616,1518,46.17053223,1518,25.06040001,
1516,41.76842117,1516,27.81303024,1516,24.68157578,1516,45.40652466,1516,25.02998924,
1514,41.58237076,1514,27.23780632,1514,24.27196693,1514,44.63353348,1514,25.03949356,
1512,41.35146332,1512,26.79375076,1512,23.84973335,1512,44.02695847,1512,25.03895378,
1510,41.18434143,1510,26.4847126,1510,23.69204903,1510,43.55831528,1510,25.01807594,
1508,41.02435303,1508,26.22216988,1508,23.34094238,1508,43.17155075,1508,24.97850609,
1506,40.86977005,1506,25.92333603,1506,22.87021065,1506,42.66404343,1506,24.90180016,
1504,40.73632813,1504,25.56322479,1504,22.34272957,1504,42.01737595,1504,24.83423805,
1502,40.58915329,1502,25.21395111,1502,21.88249779,1502,41.29716873,1502,24.79700661,
1500,40.46956253,1500,24.79351044,1500,21.61247444,1500,40.43640137,1500,24.78426552,
1498,40.33743286,1498,24.57822227,1498,21.40304375,1498,40.04031372,1498,24.80173874,
1496,40.19235229,1496,24.32016945,1496,21.22977066,1496,39.51145172,1496,24.77597809,
1494,40.08315659,1494,24.11524391,1494,21.01670647,1494,39.1241188,1494,24.73583984,
1492,39.98945618,1492,23.99446678,1492,20.74126053,1492,38.8509903,1492,24.66893578,
1490,39.92335129,1490,23.73447037,1490,20.39901543,1490,38.34329605,1490,24.59996033,
1488,39.82858658,1488,23.50135612,1488,20.03149605,1488,37.66582489,1488,24.56340218,
1486,39.73225784,1486,23.17235756,1486,19.86192322,1486,36.9251442,1486,24.54330635,
1484,39.63253021,1484,22.97278023,1484,19.64673805,1484,36.39144897,1484,24.56235313,
1482,39.5430069,1482,22.80926895,1482,19.52025414,1482,35.97225189,1482,24.53040123,
1480,39.50241852,1480,22.69843292,1480,19.42108345,1480,35.75778961,1480,24.50613022,
1478,39.43757629,1478,22.67497253,1478,19.22215462,1478,35.62817764,1478,24.44869995,
1476,39.37834549,1476,22.51873016,1476,18.9935379,1476,35.21370697,1476,24.34976387,
1474,39.30379105,1474,22.35852814,1474,18.74927711,1474,34.68280411,1474,24.30973053,
1472,39.21500397,1472,22.15133095,1472,18.63314247,1472,34.05356216,1472,24.28703499,
1470,39.15081024,1470,22.01720428,1470,18.50442505,1470,33.67656326,1470,24.29205322,
1468,39.11078262,1468,21.88708115,1468,18.40769577,1468,33.32895279,1468,24.27015305,
1466,39.07201767,1466,21.75534821,1466,18.30874252,1466,33.1008873,1466,24.22481918,
1464,39.02762985,1464,21.69815445,1464,18.14818764,1464,32.93322754,1464,24.15616417,
1462,38.96303558,1462,21.57330132,1462,17.97867203,1462,32.50178146,1462,24.06502914,
1460,38.90357208,1460,21.43593216,1460,17.79712105,1460,32.00304031,1460,24.03404617,
1458,38.83632278,1458,21.3165741,1458,17.7155838,1458,31.50489998,1458,24.02100563,
1456,38.78707123,1456,21.23121262,1456,17.63542747,1456,31.2223587,1456,24.03103256,
1454,38.80821991,1454,21.1740303,1454,17.57085991,1454,30.96117592,1454,24.019207,
1452,38.80036163,1452,21.11166954,1452,17.54447746,1452,30.82276917,1452,23.98116684,
1450,38.77651596,1450,21.08317184,1450,17.4600563,1450,30.82563591,1450,23.9215641,
1448,38.73930359,1448,21.01685333,1448,17.39769363,1448,30.64228058,1448,23.82599258,
1446,38.67246628,1446,20.91905022,1446,17.32589722,1446,30.45116997,1446,23.78379631,
1444,38.58933258,1444,20.80904388,1444,17.30285072,1444,30.18528748,1444,23.74205399,
1442,38.57577133,1442,20.75305367,1442,17.25772858,1442,29.86466599,1442,23.74483109,
1440,38.60276794,1440,20.7278614,1440,17.24782944,1440,29.79933357,1440,23.73221016,
1438,38.57629776,1438,20.70563126,1438,17.24374962,1438,29.80513954,1438,23.67511749,
1436,38.58448029,1436,20.68040276,1436,17.18549347,1436,29.81011963,1436,23.62019348,
1434,38.52456284,1434,20.60978127,1434,17.1347084,1434,29.65750313,1434,23.51969337,
1432,38.44629288,1432,20.53174019,1432,17.09651756,1432,29.46754646,1432,23.47495461,
1430,38.3706665,1430,20.46659088,1430,17.08257675,1430,29.22329521,1430,23.44331169,
1428,38.35749435,1428,20.42131424,1428,17.07043457,1428,29.0712986,1428,23.44105339,
1426,38.36563492,1426,20.38558006,1426,17.06438446,1426,29.05027771,1426,23.42910385,
1424,38.3549881,1424,20.36039162,1424,17.04741287,1424,29.05247116,1424,23.36849213,
1422,38.39255524,1422,20.352705,1422,17.02666092,1422,29.16097069,1422,23.33367348,
1420,38.31868362,1420,20.34455109,1420,17.02654266,1420,29.15567398,1420,23.24269676,
1418,38.2648735,1418,20.32953072,1418,17.0063858,1418,29.10094643,1418,23.17830086,
1416,38.22503281,1416,20.36092949,1416,17.03712463,1416,29.03673553,1416,23.17601204,
1414,38.22580338,1414,20.39761353,1414,17.05967331,1414,29.02440643,1414,23.19767952,
1412,38.19794464,1412,20.40522766,1412,17.05361748,1412,29.12602997,1412,23.15490913,
1410,38.22750854,1410,20.40206146,1410,17.05202866,1410,29.23472786,1410,23.09147835,
1408,38.34006882,1408,20.53050613,1408,17.18958855,1408,29.82910538,1408,23.11367798,
1406,38.25123215,1406,20.57463455,1406,17.2396965,1406,30.11326408,1406,22.98992538,
1404,38.37648773,1404,20.63397408,1404,17.33475113,1404,30.4589901,1404,22.98334694,
1402,38.28967285,1402,20.71192932,1402,17.42603493,1402,30.61724091,1402,22.97560692,
1400,38.26569748,1400,20.76039505,1400,17.47788429,1400,30.83130646,1400,22.8934536,
1398,38.2728653,1398,20.8249855,1398,17.53637505,1398,31.05452728,1398,22.84882355,
1396,38.41781235,1396,20.8776226,1396,17.61774635,1396,31.12894249,1396,22.86447716,
1394,38.48047638,1394,21.0455265,1394,17.73599625,1394,31.62106895,1394,22.88124847,
1392,38.57614517,1392,21.17578316,1392,17.84700775,1392,32.0387764,1392,22.84489632,
1390,38.7830925,1390,21.42401695,1390,18.05275917,1390,32.65693665,1390,22.92918968,
1388,38.65819931,1388,21.53519249,1388,18.221138,1388,32.92396927,1388,22.84618187,
1386,38.68074799,1386,21.62378883,1386,18.28629303,1386,33.2045517,1386,22.72091866,
1384,38.78302765,1384,21.73757935,1384,18.47600365,1384,33.45988083,1384,22.74440002,
1382,38.93677902,1382,21.87195206,1382,18.63615227,1382,33.71888733,1382,22.77766037,
1380,39.03961945,1380,22.09173775,1380,18.81686211,1380,34.32743073,1380,22.79687119,
1378,39.13028717,1378,22.27413559,1378,18.95196533,1378,34.81699753,1378,22.76525497,
1376,39.12994003,1376,22.34363365,1376,18.99776077,1376,35.00917435,1376,22.68302155,
1374,39.05476761,1374,22.305336,1374,18.99326515,1374,34.83829498,1374,22.56522369,
1372,39.15265274,1372,22.24938583,1372,19.04106903,1372,34.61957169,1372,22.6014061,
1370,39.33554459,1370,22.39972878,1370,19.21735764,1370,34.89318085,1370,22.76499176,
1368,39.34452057,1368,22.5914917,1368,19.52873421,1368,35.47902679,1368,22.76891708,
1366,39.42630005,1366,22.9324646,1366,19.75812149,1366,36.25366211,1366,22.68313408,
1364,39.47155762,1364,23.0683651,1364,19.8496151,1364,36.66333008,1364,22.56555748,
1362,39.41723251,1362,23.03968811,1362,19.74607468,1362,36.70394897,1362,22.40604973,
1360,39.35624695,1360,22.93027115,1360,19.6348896,1360,36.43336868,1360,22.28447151,
1358,39.2429924,1358,22.61999321,1358,19.41086388,1358,35.72779465,1358,22.23486328,
1356,38.93946457,1356,21.99084282,1356,18.74916077,1356,34.15287018,1356,22.19828033,
1354,38.69842148,1354,21.41361427,1354,18.21590042,1354,32.69887924,1354,22.10639,
1352,38.59560013,1352,20.88520432,1352,17.66299629,1352,31.3852005,1352,22.07126427,
1350,38.49097824,1350,20.44470024,1350,17.24208641,1350,30.0817318,1350,22.07027626,
1348,38.35914612,1348,20.15966797,1348,16.97472572,1348,29.05422401,1348,22.00701141,
1346,38.26610565,1346,19.98685074,1346,16.828125,1346,28.13942146,1346,22.01773453,
1344,38.23702621,1344,19.9158268,1344,16.76016235,1344,27.44676208,1344,22.07891464,
1342,38.21593857,1342,19.89460564,1342,16.71768188,1342,27.06713295,1342,22.12580299,
1340,38.27163696,1340,19.86770821,1340,16.6668663,1340,26.84324646,1340,22.12491035,
1338,38.27735901,1338,19.83249855,1338,16.63807678,1338,26.68826294,1338,22.11694527,
1336,38.27601242,1336,19.77791786,1336,16.62217331,1336,26.55887985,1336,22.0747261,
1334,38.25133896,1334,19.75747108,1334,16.62778473,1334,26.41785812,1334,22.01955986,
1332,38.18996048,1332,19.75865364,1332,16.64919662,1332,26.23829842,1332,22.00125313,
1330,38.16573715,1330,19.81214714,1330,16.64161491,1330,26.07131386,1330,22.00120163,
1328,38.18656921,1328,19.85044479,1328,16.63775826,1328,26.01805115,1328,22.02267265,
1326,38.25719833,1326,19.86651611,1326,16.60774422,1326,25.97429466,1326,22.01075745,
1324,38.2838707,1324,19.86100388,1324,16.58970642,1324,25.95143318,1324,21.99152184,
1322,38.28791046,1322,19.82656097,1322,16.59179688,1322,25.94031143,1322,21.95682716,
1320,38.2866745,1320,19.82834244,1320,16.62382889,1320,25.87778282,1320,21.91543388,
1318,38.24310684,1318,19.83716965,1318,16.67656708,1318,25.80822945,1318,21.9014492,
1316,38.24375916,1316,19.90886116,1316,16.70771599,1316,25.80155182,1316,21.91511726,
1314,38.2971611,1314,19.96739578,1314,16.75126076,1314,25.98623276,1314,21.96428299,
1312,38.41162491,1312,20.03266907,1312,16.77799988,1312,26.19834518,1312,21.97762299,
1310,38.46656799,1310,20.10593414,1310,16.79866219,1310,26.42996216,1310,21.9529705,
1308,38.46756744,1308,20.14273643,1308,16.81614304,1308,26.69348717,1308,21.90062141,
1306,38.42140579,1306,20.15480423,1306,16.79920769,1306,26.7017746,1306,21.77921104,
1304,38.35294724,1304,20.14989281,1304,16.80408859,1304,26.76558876,1304,21.70749283,
1302,38.32425308,1302,20.12585068,1302,16.78745651,1302,26.64865494,1302,21.6619873,
1300,38.3272934,1300,20.11153793,1300,16.77393532,1300,26.65984917,1300,21.66758919,
1298,38.38177109,1298,20.09254265,1298,16.75198936,1298,26.69704056,1298,21.65044212,
1296,38.41593933,1296,20.10625076,1296,16.72764778,1296,26.73789597,1296,21.62896156,
1294,38.43665314,1294,20.12979317,1294,16.71243095,1294,26.82978249,1294,21.5937252,
1292,38.438694,1292,20.14995956,1292,16.70767021,1292,26.788517,1292,21.53807259,
1290,38.38486099,1290,20.15478897,1290,16.71219063,1290,26.74690437,1290,21.51735878,
1288,38.36684418,1288,20.14705467,1288,16.71308708,1288,26.63995361,1288,21.51874352,
1286,38.380867,1286,20.16719818,1286,16.71735382,1286,26.67262268,1286,21.54236984,
1284,38.43684006,1284,20.18721008,1284,16.72827148,1284,26.75021553,1284,21.54642677,
1282,38.47818756,1282,20.22249603,1282,16.73462868,1282,26.89114189,1282,21.52557564,
1280,38.50285339,1280,20.24528313,1280,16.72495842,1280,27.06336403,1280,21.49621582,
1278,38.49213791,1278,20.24319839,1278,16.7258091,1278,27.11294556,1278,21.44172287,
1276,38.44341278,1276,20.2594471,1276,16.76286507,1276,27.25608444,1276,21.41646957,
1274,38.43159485,1274,20.29805946,1274,16.80246353,1274,27.2666893,1274,21.42508698,
1272,38.44364166,1272,20.32945633,1272,16.8393631,1272,27.38633156,1272,21.44606781,
1270,38.48773575,1270,20.38765335,1270,16.87759781,1270,27.5698719,1270,21.4448204,
1268,38.53046417,1268,20.428339,1268,16.93337059,1268,27.7687645,1268,21.43555641,
1266,38.56829834,1266,20.46836662,1266,16.97723198,1266,28.0935936,1266,21.41755104,
1264,38.5809021,1264,20.49310303,1264,17.01514816,1264,28.25567627,1264,21.35799026,
1262,38.55646133,1262,20.5304451,1262,17.06502724,1262,28.42690277,1262,21.33878708,
1260,38.55355835,1260,20.59041786,1260,17.12507439,1260,28.47835922,1260,21.33950806,
1258,38.56775284,1258,20.64684486,1258,17.19290924,1258,28.59480667,1258,21.37115669,
1256,38.60443878,1256,20.70110703,1256,17.25407982,1256,28.82417107,1256,21.38581276,
1254,38.67497253,1254,20.81335831,1254,17.38319588,1254,29.15903091,1254,21.37475204,
1252,38.71406555,1252,20.9343605,1252,17.44675446,1252,29.58558846,1252,21.37495041,
1250,38.74582291,1250,21.04174423,1250,17.50778389,1250,29.80493927,1250,21.32631302,
1248,38.76183701,1248,21.11678505,1248,17.54673004,1248,30.03380966,1248,21.31181526,
1246,38.7814064,1246,21.18642426,1246,17.63154411,1246,30.06781578,1246,21.31778526,
1244,38.82939148,1244,21.24879837,1244,17.75065613,1244,30.28783798,1244,21.36176682,
1242,38.87098694,1242,21.3474102,1242,17.85573959,1242,30.53048897,1242,21.38212013,
1240,38.97491837,1240,21.54143906,1240,18.08091927,1240,31.00168037,1240,21.38212585,
1238,39.0585556,1238,21.80473709,1238,18.21948814,1238,31.61257744,1238,21.38542747,
1236,39.12369156,1236,22.01094437,1236,18.35496521,1236,31.9769001,1236,21.34078026,
1234,39.2082901,1234,22.15755653,1234,18.43850327,1234,32.3667717,1234,21.3366909,
1232,39.26517868,1232,22.23062897,1232,18.58083344,1232,32.4141655,1232,21.34327698,
1230,39.36360168,1230,22.3843689,1230,18.8300209,1230,32.86724854,1230,21.38416672,
1228,39.46106339,1228,22.6764431,1228,19.12773323,1228,33.40346527,1228,21.41168213,
1226,39.58217239,1226,22.97470474,1226,19.51153755,1226,33.95976257,1226,21.40210915,
1224,39.72380066,1224,23.40398026,1224,19.81139374,1224,34.74891663,1224,21.39785385,
1222,39.84601212,1222,23.71442223,1222,20.06868935,1222,35.29868317,1222,21.34303093,
1220,40.05996704,1220,24.09213257,1220,20.33316422,1220,35.93853378,1220,21.32155418,
1218,40.21612549,1218,24.37320137,1218,20.66283607,1218,36.26971436,1218,21.31070137,
1216,40.37528229,1216,24.63321495,1216,21.08533859,1216,36.70860672,1216,21.32694054,
1214,40.55201721,1214,25.12773895,1214,21.58327866,1214,37.38068771,1214,21.35502243,
1212,40.7296524,1212,25.57761002,1212,22.20579338,1212,37.93647766,1212,21.34397697,
1210,40.94426346,1210,26.14548874,1210,22.63109589,1210,38.61889648,1210,21.34906769,
1208,41.16627121,1208,26.65410423,1208,23.02152443,1208,39.05036163,1208,21.31825829,
1206,41.38508606,1206,26.92937279,1206,23.16680717,1206,39.38851547,1206,21.30754089,
1204,41.66498947,1204,27.36029625,1204,23.60323715,1204,39.6888504,1204,21.32743835,
1202,41.85284424,1202,27.61354065,1202,24.10528564,1202,39.98567581,1202,21.38054276,
1200,42.0541954,1200,28.0639801,1200,24.63112259,1200,40.37435913,1200,21.44564247,
1198,38.07050323,1198,19.9611454,1198,16.42794037,1198,26.0345459,1198,21.07637787,
1196,37.86364746,1196,19.62874603,1196,16.12690163,1196,24.49482155,1196,21.0869751,
1194,37.83416748,1194,19.55382156,1194,16.02195168,1194,23.96685791,1194,21.09287262,
1192,37.82524109,1192,19.5100708,1192,15.96375084,1192,23.78838539,1192,21.10419846,
1190,37.83050537,1190,19.44192696,1190,15.94037151,1190,23.73847198,1190,21.09277916,
1188,37.808918,1188,19.42055893,1188,15.94266129,1188,23.6205101,1188,21.06897163,
1186,37.73370743,1186,19.42396355,1186,15.96137428,1186,23.50552368,1186,21.07155609,
1184,37.7168045,1184,19.48083878,1184,15.95236969,1184,23.36230278,1184,21.09208107,
1182,37.71321869,1182,19.4865799,1182,15.94119644,1182,23.32024193,1182,21.1437397,
1180,37.7604332,1180,19.46719933,1180,15.91003132,1180,23.30309105,1180,21.16228294,
1178,37.78316498,1178,19.44999886,1178,15.87144852,1178,23.31669998,1178,21.17784119,
1176,37.79455566,1176,19.42157364,1176,15.86322975,1176,23.36788177,1176,21.17993927,
1174,37.78808594,1174,19.41586876,1174,15.88535118,1174,23.32396889,1174,21.15240288,
1172,37.73255539,1172,19.40524483,1172,15.9188242,1172,23.28119469,1172,21.15790176,
1170,37.71067429,1170,19.43975258,1170,15.92746067,1170,23.19220924,1170,21.18354797,
1168,37.7191658,1168,19.45705795,1168,15.93673229,1168,23.18581581,1168,21.24598694,
1166,37.76005936,1166,19.48624802,1166,15.91252804,1166,23.19247246,1166,21.27438164,
1164,37.79000854,1164,19.48244667,1164,15.87607384,1164,23.21385956,1164,21.29676247,
1162,37.80696106,1162,19.43096924,1162,15.86987782,1162,23.29281807,1162,21.30273056,
1160,37.80293274,1160,19.39795876,1160,15.88623047,1160,23.26540756,1160,21.28800011,
1158,37.74683762,1158,19.41264153,1158,15.91476917,1158,23.24470329,1158,21.2888546,
1156,37.7311554,1156,19.4762764,1156,15.91907692,1156,23.17477417,1156,21.32322121,
1154,37.72822952,1154,19.52045059,1154,15.91656494,1154,23.18250465,1154,21.39157677,
1152,37.77749634,1152,19.51734924,1152,15.90665913,1152,23.30163383,1152,21.41792107,
1150,37.82896423,1150,19.51403999,1150,15.86703396,1150,23.38862801,1150,21.4446106,
1148,37.84146881,1148,19.46929359,1148,15.85087585,1148,23.50726891,1148,21.4365921,
1146,37.82791138,1146,19.48102951,1146,15.85319901,1146,23.50834465,1146,21.41583443,
1144,37.79653931,1144,19.4926548,1144,15.89547062,1144,23.52012825,1144,21.43157005,
1142,37.80495453,1142,19.53960419,1142,15.91996956,1142,23.46627808,1142,21.47789574,
1140,37.77427292,1140,19.56217194,1140,15.92617035,1140,23.46892929,1140,21.54286385,
1138,37.8032608,1138,19.56180763,1138,15.90305519,1138,23.46493149,1138,21.55433083,
1136,37.8707962,1136,19.5726223,1136,15.87712955,1136,23.57150078,1136,21.59658623,
1134,37.89619446,1134,19.54696655,1134,15.90437031,1134,23.76299858,1134,21.62211037,
1132,37.89642715,1132,19.54773331,1132,15.93624306,1132,23.80187607,1132,21.6049633,
1130,37.85337067,1130,19.57094002,1130,15.99119282,1130,23.85370445,1130,21.61377144,
1128,37.7946167,1128,19.61624336,1128,16.02550507,1128,23.81137276,1128,21.62503815,
1126,37.81319809,1126,19.62757301,1126,16.038517,1126,23.82248116,1126,21.67149544,
1124,37.86009216,1124,19.60881424,1124,16.06833267,1124,23.91829109,1124,21.72142792,
1122,37.91461563,1122,19.60243988,1122,16.06123352,1122,24.03615189,1122,21.75106621,
1120,37.90685654,1120,19.58451653,1120,16.06464577,1120,24.21854973,1120,21.74151611,
1118,37.90918732,1118,19.5839653,1118,16.0759449,1118,24.25794411,1118,21.7224884,
1116,37.88608932,1116,19.58452988,1116,16.10518074,1116,24.29386711,1116,21.72155952,
1114,37.8109436,1114,19.57655716,1114,16.12835503,1114,24.23387146,1114,21.75018692,
1112,37.83703613,1112,19.5850296,1112,16.14103699,1112,24.23550797,1112,21.81558418,
1110,37.84332657,1110,19.61523056,1110,16.14834023,1110,24.31306458,1110,21.87319565,
1108,37.89803314,1108,19.61455917,1108,16.12872124,1108,24.42132759,1108,21.89888,
1106,37.92169189,1106,19.61133575,1106,16.13329887,1106,24.64343643,1106,21.91917801,
1104,37.90918732,1104,19.62338448,1104,16.14509964,1104,24.742239,1104,21.9058075,
1102,37.90493774,1102,19.62220764,1102,16.16732407,1102,24.80260468,1102,21.91179466,
1100,37.85404205,1100,19.61858559,1100,16.19770432,1100,24.79530716,1100,21.93845367,
1098,37.86633301,1098,19.63916397,1098,16.22434044,1098,24.90165138,1098,22.00358391,
1096,37.89726639,1096,19.6858654,1096,16.24280548,1096,25.04922104,1096,22.06148148,
1094,37.96120453,1094,19.73904419,1094,16.25621986,1094,25.23056793,1094,22.09070015,
1092,37.97770309,1092,19.77707291,1092,16.2819767,1092,25.51989174,1092,22.12110138,
1090,38.00174713,1090,19.78118515,1090,16.31157112,1090,25.69158363,1090,22.09866142,
1088,37.98857117,1088,19.77217102,1088,16.34703636,1088,25.814291,1088,22.09758759,
1086,37.9495163,1086,19.81581688,1086,16.39764786,1086,25.86323547,1086,22.12910843,
1084,37.95701981,1084,19.88308907,1084,16.44008255,1084,25.93326187,1084,22.17438889,
1082,37.97590637,1082,19.94028473,1082,16.46507454,1082,26.09019661,1082,22.24004364,
1080,38.03990173,1080,20.01964951,1080,16.52091217,1080,26.40636063,1080,22.26688957,
1078,38.08020401,1078,20.05962944,1078,16.55238342,1078,26.79112244,1078,22.29432869,
1076,38.10975266,1076,20.10692215,1076,16.58976936,1076,27.08286095,1076,22.28759384,
1074,38.11332703,1074,20.15097427,1074,16.60819626,1074,27.28258705,1074,22.28455353,
1072,38.09626007,1072,20.2229538,1072,16.66282272,1072,27.44920349,1072,22.31328201,
1070,38.12108612,1070,20.29890633,1070,16.71808243,1070,27.54616165,1070,22.35608482,
1068,38.14595795,1068,20.37345886,1068,16.76820946,1068,27.81821823,1068,22.42484283,
1066,38.24925232,1066,20.49042511,1066,16.91234207,1066,28.25854492,1066,22.4523983,
1064,38.27569962,1064,20.60942078,1064,16.98532677,1064,28.78277969,1064,22.47827911,
1062,38.34289169,1062,20.74085426,1062,17.06866264,1062,29.22531128,1062,22.47101593,
1060,38.36162567,1060,20.88401794,1060,17.13464355,1060,29.57901573,1060,22.46154976,
1058,38.38116074,1058,20.96694374,1058,17.21721458,1058,29.77142715,1058,22.48523331,
1056,38.42437363,1056,21.05383873,1056,17.3485527,1056,29.99351311,1056,22.52288055,
1054,38.50788498,1054,21.24559593,1054,17.53759003,1054,30.56844139,1054,22.59442711,
1052,38.61293793,1052,21.41039085,1052,17.79451561,1052,31.11281776,1052,22.62075424,
1050,38.69435501,1050,21.71489334,1050,17.99990082,1050,31.93439484,1050,22.64087868,
1048,38.80532837,1048,21.96277618,1048,18.14332008,1048,32.52379227,1048,22.63181686,
1046,38.91003418,1046,22.21750832,1046,18.34050941,1046,33.22025681,1046,22.62277222,
1044,39.03262329,1044,22.42711258,1044,18.52914238,1044,33.68012238,1044,22.64040756,
1042,39.11066818,1042,22.58803177,1042,18.78110886,1042,33.98404694,1042,22.67638206,
1040,39.23938751,1040,22.87090111,1040,19.04596329,1040,34.59044266,1040,22.74587631,
1038,39.36896133,1038,23.16499329,1038,19.48142052,1038,35.36128235,1038,22.76571083,
1036,39.57402039,1036,23.64639854,1036,19.94468498,1036,36.30112457,1036,22.80214882,
1034,39.75144196,1034,24.15665817,1034,20.33611298,1034,37.14039993,1034,22.79706383,
1032,39.97535706,1032,24.52758598,1032,20.62537575,1032,37.73045349,1032,22.7672596,
1030,40.24720001,1030,25.05836868,1030,21.09751701,1030,38.46346283,1030,22.79813957,
1028,40.48081589,1028,25.394907,1028,21.65258598,1028,38.93589783,1028,22.82866287,
1026,40.70010376,1026,25.92059326,1026,22.24860764,1026,39.62548828,1026,22.89668846,
1024,40.92889023,1024,26.50489426,1024,23.1509037,1024,40.44897461,1024,22.9373951,
1022,41.28820801,1022,27.27213287,1022,24.16669083,1022,41.36862183,1022,22.9664402,
1020,41.629776,1020,28.06450462,1020,24.96138382,1020,42.1293335,1020,22.97905922,
1018,42.11399078,1018,28.83332443,1018,25.95703506,1018,42.92555618,1018,22.98275566,
1016,42.63803482,1016,29.50000191,1016,26.74442291,1016,43.53044128,1016,23.05028343,
1014,43.0437355,1014,29.91527557,1014,27.67437935,1014,43.95113373,1014,23.1691227,
1012,43.66156006,1012,30.73370171,1012,29.00593948,1012,44.68974304,1012,23.46094322,
1010,44.09896088,1010,31.37157822,1010,30.25110054,1010,45.19264984,1010,23.70749474,
1008,44.17570877,1008,31.51804733,1008,30.54775047,1008,45.29719543,1008,23.74837303,
1006,44.19448853,1006,31.59101677,1006,30.49945831,1006,45.31783295,1006,23.70260429,
1004,44.12775421,1004,31.55047989,1004,30.3747921,1004,45.25601196,1004,23.58889389,
1002,44.2532959,1002,31.50198746,1002,30.12940025,1002,45.26456833,1002,23.59648705,
1000,44.21059418,1000,31.33023643,1000,30.1096344,1000,45.21775055,1000,23.64282799,
998,44.13861465,998,31.26958084,998,30.14526749,998,45.26130676,998,23.76126862,
996,44.03041077,996,31.28139877,996,30.30833626,996,45.30086517,996,23.79859734,
994,43.97480392,994,31.33075333,994,30.50371933,994,45.35902023,994,23.78401375,
992,43.95140839,992,31.42011261,992,30.49387932,992,45.44347,992,23.74247551,
990,43.98298645,990,31.37310982,990,30.39909935,990,45.42618942,990,23.6090889,
988,44.05677032,988,31.32854652,988,30.13641167,988,45.44788742,988,23.60323334,
986,44.03061295,986,31.17359543,986,30.10453224,986,45.36891937,986,23.61795807,
984,43.97247314,984,31.09924698,984,30.11891556,984,45.38673019,984,23.73104668,
982,43.82992554,982,31.05974197,982,30.23076057,982,45.38059235,982,23.76210594,
980,43.81612396,980,31.07217026,980,30.39544296,980,45.39573669,980,23.75509453,
978,43.74506378,978,31.16284943,978,30.31671715,978,45.41898727,978,23.7207756,
976,43.77849579,976,31.11670685,976,30.17590904,976,45.35337448,976,23.60505104,
974,43.8614006,974,31.04658508,974,29.86891174,974,45.30712509,974,23.60186768,
972,43.80246353,972,30.84432793,972,29.78479004,972,45.19880295,972,23.62547493,
970,43.76016617,970,30.72286224,970,29.76151085,970,45.13534927,970,23.74104691,
968,43.597435,968,30.69702339,968,29.80544853,968,45.08948517,968,23.78811836,
966,43.52430725,966,30.68123817,966,29.95196342,966,45.05888367,966,23.80176353,
964,43.47582626,964,30.70375252,964,29.88698196,964,45.03298569,964,23.78399277,
962,43.46795273,962,30.65295601,962,29.76475716,962,44.9685936,962,23.67644882,
960,43.58586121,960,30.59371948,960,29.46808243,960,44.94641495,960,23.68551064,
958,43.51837158,958,30.43276024,958,29.42202759,958,44.85986328,958,23.71721649,
956,43.5007019,956,30.32692337,956,29.45982742,956,44.85447311,956,23.83159065,
954,43.37338638,954,30.30642319,954,29.5206852,954,44.83487701,954,23.88443756,
952,43.28737259,952,30.29291344,952,29.72841835,952,44.84746552,952,23.884655,
950,43.24516296,950,30.38518524,950,29.69931602,950,44.85808182,950,23.8427639,
948,43.2493782,948,30.37970924,948,29.61967659,948,44.81074142,948,23.71106148,
946,43.36096573,946,30.31299782,946,29.32942772,946,44.78440857,946,23.68641853,
944,43.33778763,944,30.13466263,944,29.23392677,944,44.64172363,944,23.686903,
942,43.30180359,942,30.03399277,942,29.22465897,942,44.55163956,942,23.76314926,
940,43.13671112,940,30.00242424,940,29.24450111,940,44.45942307,940,23.79911041,
938,42.99062347,938,29.95323563,938,29.40202141,938,44.3441658,938,23.76075363,
936,42.98179626,936,29.98016548,936,29.3216114,936,44.25457764,936,23.72509956,
934,42.93793106,934,29.93135834,934,29.18349838,934,44.12035751,934,23.58277512,
932,43.01773453,932,29.8455658,932,28.86771011,932,44.00460434,932,23.51594353,
930,43.01787186,930,29.71329308,930,28.74215889,930,43.84896088,930,23.52396774,
928,42.9616127,928,29.58961105,928,28.69433403,928,43.7644043,928,23.58508492,
926,42.8310585,926,29.5743885,926,28.67346954,926,43.67176437,926,23.63743973,
924,42.70010757,924,29.59789276,924,28.83676338,924,43.57611084,924,23.58338165,
922,42.694664,922,29.63938713,922,28.76138687,922,43.50144958,922,23.54751015,
920,42.69851685,920,29.61896706,920,28.62663841,920,43.40585327,920,23.39099121,
918,42.76391602,918,29.55953789,918,28.33561897,918,43.28374863,918,23.32470512,
916,42.76673508,916,29.45570946,916,28.19351006,916,43.10823059,916,23.28072357,
914,42.76495743,914,29.34524727,914,28.15605736,914,42.94484329,914,23.31340599,
912,42.62929916,912,29.33989716,912,28.12716103,912,42.83634949,912,23.35189247,
910,42.47916031,910,29.30537796,910,28.3026104,910,42.7100563,910,23.29131126,
908,42.48773956,908,29.36663055,908,28.27962303,908,42.62155151,908,23.21987724,
906,42.48272324,906,29.37651062,906,28.16013336,906,42.50342941,906,23.06682968,
904,42.54154968,904,29.28513336,904,27.9191494,904,42.32141876,904,22.95544434,
902,42.57984924,902,29.18136787,902,27.77349854,902,42.13227463,902,22.89409637,
900,42.54039383,900,29.11525154,900,27.75879478,900,41.96380615,900,22.90839958,
898,42.41708755,898,29.08958435,898,27.7707901,898,41.8122406,898,22.9341259,
896,42.28578186,896,29.05499268,896,27.95046234,896,41.70388412,896,22.8594532,
894,42.28668594,894,29.09473419,894,27.95751381,894,41.60818863,894,22.76406288,
892,42.29308319,892,29.10590172,892,27.89554024,892,41.49187088,892,22.60193062,
890,42.33996582,890,29.0348587,890,27.70907211,890,41.30336761,890,22.43019295,
888,42.42324829,888,28.96273994,888,27.57331657,888,41.12147522,888,22.36493874,
886,42.35734558,886,28.87439156,886,27.56643677,886,40.96383286,886,22.31439972,
884,42.27955627,884,28.84398651,884,27.59821129,884,40.82088852,884,22.32512283,
882,42.15628052,882,28.83544922,882,27.80726624,882,40.70451736,882,22.18841934,
880,42.14551926,880,28.86893845,880,27.84346581,880,40.62443161,880,22.06941223,
878,42.1552124,878,28.89585495,878,27.78198624,878,40.47524261,878,21.83274841,
876,42.21858215,876,28.86068153,876,27.62173653,876,40.31278229,876,21.64005661,
874,42.28482056,874,28.798172,874,27.46542358,874,40.19223022,874,21.48422241,
872,42.24663925,872,28.72321701,872,27.44653511,872,40.01154709,872,21.367939,
870,42.17554092,870,28.71683311,870,27.49687195,870,39.91732788,870,21.31412697,
868,42.05931854,868,28.72899246,868,27.68294144,868,39.80793762,868,21.14339447,
866,42.08412933,866,28.79258347,866,27.72020721,866,39.73252106,866,20.9435215,
864,42.08290863,864,28.8704834,864,27.7084198,864,39.62722778,864,20.70054245,
862,42.11588669,862,28.83018875,862,27.58185959,862,39.45679474,862,20.41579437,
860,42.27118683,860,28.82475471,860,27.38801575,860,39.32243729,860,20.18921661,
858,42.23822021,858,28.73057175,858,27.36947632,858,39.12377548,858,20.04304886,
856,42.17742538,856,28.75966454,856,27.42028236,856,38.99514389,856,19.93400002,
854,42.10645676,854,28.76019478,854,27.59549713,854,38.84214783,854,19.71324348,
852,42.1289711,852,28.83554649,852,27.70132637,852,38.69589996,852,19.45185089,
850,42.15549469,850,28.9416275,850,27.64626122,850,38.47893906,850,19.16518593,
848,42.20285797,848,28.92219925,848,27.39774513,848,38.19438934,848,18.85137367,
846,42.32696915,846,28.94788742,846,27.0889492,846,37.89278412,846,18.55480003,
844,42.30527878,844,28.80127335,844,27.00330353,844,37.57397461,844,18.34404373,
842,42.22986603,842,28.81064415,842,26.97257996,842,37.29073715,842,18.13585281,
840,42.17298508,840,28.80614662,840,27.07906723,840,37.00086212,840,17.88711357,
838,42.16343689,838,28.81351089,838,27.16948128,838,36.6172905,838,17.5978508,
836,42.1792717,836,28.89257431,836,27.13906479,836,36.0800705,836,17.24138451,
834,42.24017715,834,28.84902,834,26.9655323,834,35.52352905,834,16.83313942,
832,42.35100555,832,28.81348419,832,26.69103432,832,34.97578812,832,16.49512863,
830,42.3227272,830,28.63791847,830,26.67269325,830,34.52364731,830,16.24530983,
828,42.28453445,828,28.58529663,828,26.73312187,828,34.11540222,828,16.01880646,
826,42.16239929,826,28.53771973,826,26.91481781,826,33.76423264,826,15.67569542,
824,42.13994217,824,28.47629166,824,27.14445877,824,33.42095566,824,15.34715748,
822,42.14905167,822,28.49329758,822,27.04878807,822,33.03260803,822,14.97560024,
820,42.17303467,820,28.36581421,820,26.90506935,820,32.65248489,820,14.5714674,
818,42.17899323,818,28.23776245,818,26.56433296,818,32.29966354,818,14.27709293,
816,42.15167618,816,28.00217628,816,26.43356323,816,32.1115303,816,13.96543789,
814,42.11540604,814,27.77695274,814,26.28745651,814,32.03704071,814,13.76443958,
812,42.00479126,812,27.66103172,812,26.19580269,812,31.95115662,812,13.51273346,
810,41.90833282,810,27.49897575,810,26.1805439,810,31.79234314,810,13.23769379,
808,41.88146591,808,27.35601425,808,25.84125328,808,31.55657578,808,12.94891548,
806,41.78373337,806,27.15606689,806,25.47145462,806,31.2817421,806,12.61487865,
804,41.88367844,804,26.88546562,804,24.88010216,804,30.99320793,804,12.39373112,
802,41.78294373,802,26.53200912,802,24.57113457,802,30.67462158,802,12.25955105,
800,41.67669296,800,26.26622581,800,24.18872643,800,30.44373703,800,12.09697247,
799,35.81967163,799,16.18646812,799,12.78759098,799,18.53736115,799,11.67845154,
798,35.79053116,798,16.36035538,798,12.69143486,798,18.6441021,798,11.61189938,
797,35.8488121,797,16.24643707,797,12.63380814,797,18.52729988,797,11.56330585,
796,35.961586,796,16.21847153,796,12.51027298,796,18.47974968,796,11.49768353,
795,35.90170288,795,16.31441307,795,12.41712475,795,18.35969925,795,11.39946079,
794,35.93785477,794,16.27936554,794,12.32940197,794,18.26616287,794,11.24836826,
793,35.87047577,793,16.16856575,793,12.35451794,793,18.16761589,793,11.12428761,
792,35.90145874,792,16.09315491,792,12.34014606,792,18.16801453,792,11.03965187,
791,35.90120697,791,16.30950356,791,12.28264332,791,18.21097374,791,11.02556133,
790,35.99201202,790,16.49333763,790,12.21922016,790,18.11662102,790,10.98247623,
789,36.03866196,789,16.34102249,789,12.08055401,789,18.06555367,789,10.91195202,
788,36.07762146,788,16.1396389,788,11.97604752,788,17.92399025,788,10.80391121,
787,36.0540657,787,16.12526703,787,11.9162035,787,17.81728745,787,10.75032234,
786,36.02476883,786,16.31488419,786,11.90714169,786,17.77241898,786,10.6327858,
785,36.01695251,785,16.35693169,785,11.92404079,785,17.88179207,785,10.61366844,
784,36.01037979,784,16.29101372,784,11.84440804,784,17.95746613,784,10.57826996,
783,36.07614517,783,16.27429199,783,11.78676796,783,17.89373016,783,10.55316734,
782,36.13499451,782,16.39409256,782,11.6371212,782,17.81418419,782,10.49003029,
781,36.18577194,781,16.3832798,781,11.52645779,781,17.67326927,781,10.43205929,
780,36.16667938,780,16.19163895,780,11.49969292,780,17.50931549,780,10.35639763,
779,36.1726799,779,16.22700119,779,11.47056103,779,17.42558098,779,10.27319145,
778,36.16278076,778,16.35164261,778,11.4928875,778,17.40440559,778,10.24790668,
777,36.18622971,777,16.37345314,777,11.43570518,777,17.41288567,777,10.2261076,
776,36.22925186,776,16.29013634,776,11.38735676,776,17.33395386,776,10.2428484,
775,36.3501358,775,16.41369247,775,11.2506609,775,17.26594925,775,10.1972456,
774,36.36420822,774,16.6020565,774,11.15868473,774,17.1403923,774,10.17512417,
773,36.38197708,773,16.36695671,773,11.14227581,773,16.95949364,773,10.09517097,
772,36.41928482,772,16.16629982,772,11.12184048,772,16.90567589,772,10.03657532,
771,36.33081055,771,16.23021126,771,11.16766644,771,16.90006638,771,10.01541424,
770,36.36452484,770,16.59414864,770,11.12252808,770,16.92594528,770,10.02033424,
769,36.43467712,769,16.62061501,769,11.07103539,769,16.8505764,769,10.02344227,
768,36.48799515,768,16.47086716,768,11.00387573,768,16.71515846,768,10.01729488,
767,36.56788635,767,16.38326263,767,10.89544106,767,16.55507851,767,9.997887611,
766,36.65154266,766,16.434412,766,10.87129498,766,16.29174232,766,9.962822914,
765,36.64169693,765,16.41391945,765,10.88864994,765,16.19445229,765,9.899587631,
764,36.60585403,764,16.40303993,764,10.9106102,764,16.12589455,764,9.884788513,
763,36.60877228,763,16.59405136,763,10.89014626,763,16.16211319,763,9.872145653,
762,36.7062645,762,16.69049835,762,10.8469944,762,16.11331177,762,9.909470558,
761,36.81055069,761,16.56382751,761,10.76957989,761,16.03442383,761,9.92225647,
760,36.80245972,760,16.39042282,760,10.64621925,760,15.85260582,760,9.866065025,
759,36.85524368,759,16.46798515,759,10.6125927,759,15.64040756,759,9.843175888,
758,36.87482071,758,16.68692207,758,10.6025486,758,15.57674217,758,9.810969353,
757,36.87594223,757,16.57357216,757,10.64572811,757,15.53844357,757,9.789815903,
756,36.84191895,756,16.46482658,756,10.62145424,756,15.60530663,756,9.815086365,
755,36.96554565,755,16.61687279,755,10.5663662,755,15.59350204,755,9.830069542,
754,36.99859619,754,16.73740196,754,10.50623131,754,15.46001244,754,9.83502388,
753,37.08875656,753,16.61084175,753,10.38145638,753,15.32085228,753,9.819192886,
752,37.12821198,752,16.49214554,752,10.34858608,752,15.09058285,752,9.795291901,
751,37.11709213,751,16.56753159,751,10.32510471,751,14.929533,751,9.73267746,
750,37.10024643,750,16.55410767,750,10.35550785,750,14.82943439,750,9.742342949,
749,37.06371689,749,16.53894997,749,10.33102798,749,14.83209324,749,9.713900566,
748,37.17576218,748,16.72992134,748,10.28511238,748,14.7345562,748,9.759963036,
747,37.21166992,747,16.83370972,747,10.21617126,747,14.61592865,747,9.756792068,
746,37.29217529,746,16.64021492,746,10.11829662,746,14.43689919,746,9.750418663,
745,37.29518509,745,16.40240669,745,10.08416367,745,14.22256947,745,9.712146759,
744,37.32683182,744,16.55827141,744,10.06846428,744,14.11756992,744,9.67017746,
743,37.24566269,743,16.71393585,743,10.09328461,743,14.06802559,743,9.657107353,
742,37.28940582,742,16.65382004,742,10.09481335,742,14.11850643,742,9.65106678,
741,37.35923386,741,16.59239769,741,10.07433033,741,14.10097313,741,9.670406342,
740,37.45973587,740,16.66281128,740,10.03262329,740,13.99322414,740,9.702356339,
739,37.53718567,739,16.71969223,739,9.925885201,739,13.89335537,739,9.693331718,
738,37.63986588,738,16.5982132,738,9.911634445,738,13.70149708,738,9.673592567,
737,37.68395996,737,16.65261841,737,9.900378227,737,13.62230206,737,9.646686554,
736,37.65773392,736,16.64905167,736,9.975444794,736,13.57504559,736,9.633700371,
735,37.71264648,735,16.63403511,735,9.99331665,735,13.6311903,735,9.641486168,
734,37.81586456,734,16.71779633,734,9.979406357,734,13.62380409,734,9.685871124,
733,37.94530487,733,16.98318863,733,9.969144821,733,13.5797205,733,9.716441154,
732,38.1035347,732,16.94778252,732,9.891231537,732,13.53366089,732,9.723390579,
731,38.16601181,731,16.66835022,731,9.878610611,731,13.40142441,731,9.729031563,
730,38.23787689,730,16.68921471,730,9.891758919,730,13.36348534,730,9.682973862,
729,38.2575531,729,16.92664719,729,9.960534096,729,13.39476395,729,9.687264442,
728,38.30185699,728,16.95371056,728,9.994967461,728,13.46584702,728,9.709712029,
727,38.40499496,727,16.94482803,727,9.985952377,727,13.52528,727,9.745233536,
726,38.51858521,726,17.01536751,726,9.999982834,726,13.49208832,726,9.769162178,
725,38.65970993,725,17.01925659,725,9.914396286,725,13.49596977,725,9.777331352,
724,38.78432083,724,16.91089821,724,9.928898811,724,13.36210537,724,9.783828735,
723,38.83047104,723,16.99525452,723,9.933376312,723,13.30735493,723,9.742711067,
722,38.81952286,722,17.00613594,722,10.00889111,722,13.32032204,722,9.738430023,
721,38.87802505,721,16.93723869,721,10.0450716,721,13.40285683,721,9.754106522,
720,38.98666,720,17.0399189,720,10.04722404,720,13.47955513,720,9.780268669,
719,39.1022377,719,17.235569,719,10.05764103,719,13.45503616,719,9.807829857,
718,39.26940918,718,17.14585686,718,9.981897354,718,13.44205475,718,9.821286201,
717,39.37466431,717,16.93803024,717,9.961462975,717,13.3188467,717,9.826852798,
716,39.43580246,716,16.93704224,716,9.994886398,716,13.25394917,716,9.793691635,
715,39.42681122,715,17.01471329,715,10.07098675,715,13.25607109,715,9.783471107,
714,39.42553711,714,17.003479,714,10.11823082,714,13.29822826,714,9.782046318,
713,39.51387024,713,17.06968307,713,10.10185432,713,13.3622036,713,9.813885689,
712,39.59824371,712,17.13166046,712,10.11479282,712,13.31373882,712,9.829343796,
711,39.710289,711,17.0281105,711,10.05156803,711,13.27386665,711,9.831654549,
710,39.7823143,710,16.9692688,710,10.0284729,710,13.16459942,710,9.814095497,
709,39.81369781,709,16.95924759,709,10.02874851,709,13.06027889,709,9.782714844,
708,39.82705307,708,16.82355499,708,10.07168961,708,13.05657482,708,9.747815132,
707,39.8658371,707,16.82035828,707,10.13531303,707,13.103899,707,9.754844666,
706,39.8564682,706,17.04799461,706,10.13161755,706,13.1648941,706,9.759545326,
705,39.93331909,705,16.99024391,705,10.13998699,705,13.13484764,705,9.774619102,
704,40.08138657,704,16.82178116,704,10.06990623,704,13.09286499,704,9.790378571,
703,40.12694931,703,16.76412582,703,10.05236244,703,12.9728632,703,9.768538475,
702,40.1827774,702,16.74365044,702,10.07088757,702,12.8972168,702,9.75031662,
701,40.1753273,701,16.69936943,701,10.130867,701,12.89768791,701,9.717164993,
700,40.19931412,700,16.71940041,700,10.20529747,700,12.91947174,700,9.716938972,
699,40.24555588,699,16.76353645,699,10.23497772,699,13.01173878,699,9.736280441,
698,40.33570099,698,16.72598267,698,10.2439537,698,13.04557514,698,9.776029587,
697,40.47755432,697,16.76290703,697,10.20465183,697,13.05232334,697,9.797445297,
696,40.60894012,696,16.79713821,696,10.20821285,696,12.9992485,696,9.797633171,
695,40.6520462,695,16.56147194,695,10.24322319,695,12.96619892,695,9.766958237,
694,40.71115494,694,16.53223228,694,10.33041668,694,12.9987936,694,9.754281998,
693,40.7187233,693,16.71702194,693,10.42370319,693,13.07831573,693,9.759802818,
692,40.78277969,692,16.80831528,692,10.47755432,692,13.23944283,692,9.7888937,
691,40.88401413,691,16.7194252,691,10.5198698,691,13.29113674,691,9.835963249,
690,41.05195236,690,16.7391243,690,10.49234962,690,13.32731056,690,9.857753754,
689,41.13343811,689,16.73133659,689,10.50050449,689,13.32567215,689,9.870470047,
688,41.18307114,688,16.61203957,688,10.55851555,688,13.2663784,688,9.841147423,
687,41.17338562,687,16.61127281,687,10.63306332,687,13.28512764,687,9.809617996,
686,41.14267731,686,16.55535507,686,10.76110172,686,13.36764145,686,9.808065414,
685,41.16257095,685,16.62552643,685,10.79547787,685,13.50007057,685,9.836023331,
684,41.22080612,684,16.68451309,684,10.83151627,684,13.50427818,684,9.861701965,
683,41.30015945,683,16.63068771,683,10.8229475,683,13.50344276,683,9.843795776,
682,41.29256058,682,16.47161484,682,10.79461288,682,13.42246342,682,9.846042633,
681,41.31084824,681,16.38542557,681,10.8424015,681,13.26256561,681,9.801221848,
680,41.19057465,680,16.37389755,680,10.9128952,680,13.2076683,680,9.729999542,
679,41.02018738,679,16.2862606,679,11.01271248,679,13.18655872,679,9.715707779,
678,40.96105957,678,16.28857994,678,11.03533268,678,13.20862198,678,9.686862946,
677,40.87319565,677,16.2346859,677,11.04232025,677,13.16297531,677,9.677458763,
676,40.79727554,676,16.14205551,676,11.01476669,676,13.02672005,676,9.637231827,
675,40.68814087,675,16.05008507,675,10.94292259,675,12.87749863,675,9.590826035,
674,40.5181427,674,15.79244614,674,10.93522739,674,12.64314079,674,9.512394905,
673,40.31341553,673,15.67261791,673,10.96709251,673,12.50937843,673,9.434465408,
672,40.13402939,672,15.6616497,672,11.07008648,672,12.41824627,672,9.375429153,
671,40.033638,671,15.65332985,671,11.081707,671,12.44437885,671,9.347869873,
670,40.00829315,670,15.59271622,670,11.09455395,670,12.38213348,670,9.36857605,
669,40.14812469,669,15.58937454,669,11.13004208,669,12.3179121,669,9.365596771,
668,40.25209427,668,15.59772778,668,11.11213589,668,12.23873425,668,9.371674538,
667,40.34934235,667,15.5233326,667,11.18125725,667,12.0811224,667,9.364902496,
666,40.436306,666,15.48505306,666,11.29034328,666,12.04889679,666,9.338889122,
665,40.43826675,665,15.48913097,665,11.45040703,665,12.04227352,665,9.351468086,
664,40.52466583,664,15.6320467,664,11.53326225,664,12.10941601,664,9.350984573,
663,40.62206268,663,15.68508625,663,11.59144974,663,12.10710812,663,9.404824257,
662,40.82270432,662,15.64417744,662,11.63360596,662,12.07301903,662,9.415971756,
661,40.90306091,661,15.6583128,661,11.60501099,661,12.00499725,661,9.407097816,
660,40.99818802,660,15.60814857,660,11.67625427,660,11.86328506,660,9.403618813,
659,41.01445389,659,15.55155659,659,11.74732113,659,11.80809975,659,9.351212502,
658,40.99885559,658,15.53415203,658,11.87577724,658,11.79973507,658,9.348530769,
657,41.03297424,657,15.61506081,657,11.95194435,657,11.86540222,657,9.33781147,
656,41.12202835,656,15.71224022,656,12.00824261,656,11.86468124,656,9.374625206,
655,41.28631592,655,15.72239208,655,12.04991913,655,11.81872845,655,9.386394501,
654,41.38595581,654,15.68499756,654,12.01032066,654,11.75131893,654,9.386309624,
653,41.46821976,653,15.66842842,653,12.0710516,653,11.61227036,653,9.361807823,
652,41.54970551,652,15.65755177,652,12.14338493,652,11.5631218,652,9.31109333,
651,41.54444504,651,15.65329838,651,12.30846596,651,11.54708862,651,9.300598145,
650,41.63859177,650,15.76137733,650,12.39280891,650,11.61332226,650,9.305323601,
649,41.73283768,649,15.89762402,649,12.4645443,649,11.62963676,649,9.334768295,
648,41.93183136,648,15.92369843,648,12.51243973,648,11.60529804,648,9.345305443,
647,42.10138321,647,15.94431686,647,12.49824238,647,11.56661034,647,9.341268539,
646,42.20909882,646,15.92765331,646,12.55279922,646,11.42380428,646,9.32408905,
645,42.36439133,645,15.97682858,645,12.63714409,645,11.37553406,645,9.292924881,
644,42.39742279,644,16.03105736,644,12.79379559,644,11.36733627,644,9.269492149,
643,42.50261307,643,16.13549232,643,12.89530945,643,11.43242264,643,9.271735191,
642,42.69657135,642,16.33064651,642,12.94096375,642,11.45242786,642,9.295554161,
641,42.91355133,641,16.40557098,641,12.97977543,641,11.42974949,641,9.305853844,
640,43.18917465,640,16.46279526,640,12.95178413,640,11.39892673,640,9.301977158,
639,43.39798737,639,16.51658249,639,12.98162651,639,11.26517868,639,9.297801018,
638,43.59247589,638,16.5601368,638,13.05720043,638,11.22129726,638,9.258203506,
637,43.71965027,637,16.67181396,637,13.20936203,637,11.22219086,637,9.245573997,
636,43.9487114,636,16.83291054,636,13.31855488,636,11.28244877,636,9.246296883,
635,44.18858719,635,17.08088875,635,13.36792088,635,11.344203,635,9.271072388,
634,44.51511383,634,17.2409153,634,13.40592384,634,11.31722641,634,9.302955627,
633,44.86952209,633,17.32559776,633,13.3738308,633,11.29768085,633,9.295475006,
632,45.1011734,632,17.40616798,632,13.40536499,632,11.20829964,632,9.282863617,
631,45.37355042,631,17.52937698,631,13.49165154,631,11.17838764,631,9.237699509,
630,45.56455612,630,17.67748451,630,13.64338684,630,11.18323231,630,9.209539413,
629,45.80926895,629,17.86476135,629,13.76382732,629,11.25436687,629,9.196368217,
628,46.05240631,628,18.14056396,628,13.81744862,628,11.33200359,628,9.203835487,
627,46.33922577,627,18.2943058,627,13.83796883,627,11.34009266,627,9.218977928,
626,46.62199402,626,18.3972187,626,13.78109169,626,11.33995342,626,9.191884995,
625,46.84612274,625,18.44731331,625,13.77342987,625,11.26172066,625,9.157749176,
624,46.99713898,624,18.56036949,624,13.77012444,624,11.23055267,624,9.079978943,
623,47.08708954,623,18.65259171,623,13.81397438,623,11.24278355,623,9.010231018,
622,47.1404686,622,18.80143929,622,13.8390522,622,11.29664993,622,8.959458351,
621,47.20222473,621,19.0414257,621,13.7590971,621,11.37752342,621,8.905116081,
620,47.26799393,620,19.10949135,620,13.64055538,620,11.37105083,620,8.867141724,
619,47.39941788,619,19.1695118,619,13.44315434,619,11.33675289,619,8.789506912,
618,47.3463707,618,19.17459297,618,13.29179001,618,11.26429081,618,8.69696331,
617,47.28526306,617,19.16382217,617,13.18292809,617,11.1764164,617,8.569634438,
616,47.12522507,616,19.14260101,616,13.11672497,616,11.1406126,616,8.454813004,
615,46.97571182,615,19.20316124,615,13.06698132,615,11.15119743,615,8.345191956,
614,46.85314178,614,19.32967377,614,12.935956,614,11.19082737,614,8.260158539,
613,46.7645874,613,19.31698418,613,12.79401588,613,11.15481663,613,8.185502052,
612,46.7043457,612,19.3270092,612,12.61007595,612,11.09743881,612,8.082681656,
611,46.56887817,611,19.26375961,611,12.45937347,611,10.98724842,611,7.963838577,
610,46.39216995,610,19.13066292,610,12.34384251,610,10.88025284,610,7.826627254,
609,46.144104,609,19.08946419,609,12.29358196,609,10.83197308,609,7.69020319,
608,45.87225342,608,19.12875557,608,12.25835896,608,10.82004356,608,7.592251301,
607,45.69855499,607,19.19571114,607,12.15701103,607,10.84914112,607,7.494465351,
606,45.5670433,606,19.14210129,606,12.05609035,606,10.80480003,606,7.413948536,
605,45.45879745,605,19.17756653,605,11.89426517,605,10.75332451,605,7.311563015,
604,45.30883408,604,19.06183052,604,11.75047016,604,10.6489706,604,7.212402821,
603,45.16416931,603,18.93182182,603,11.66643238,603,10.54484653,603,7.098900318,
602,44.98625183,602,18.94603729,602,11.63405132,602,10.51766682,602,6.984801769,
601,44.81603241,601,18.95963097,601,11.64078522,601,10.53467941,601,6.904079914,
600,44.71593857,600,19.02109146,600,11.57156754,600,10.6313467,600,6.833824635,
599,44.65432739,599,19.08218002,599,11.49932194,599,10.63993263,599,6.797231197,
598,44.71036911,598,19.10006523,598,11.39322758,598,10.64765167,598,6.728053093,
597,44.67969131,597,19.04492378,597,11.26318455,597,10.6211319,597,6.662397861,
596,44.65320969,596,18.971138,596,11.22145271,596,10.56543064,596,6.589578152,
595,44.60478592,595,18.9774971,595,11.20890617,595,10.59393597,595,6.504970074,
594,44.5575943,594,19.05069542,594,11.23833752,594,10.66932106,594,6.446193218,
593,44.54528809,593,19.20861626,593,11.19072628,593,10.83889103,593,6.407426357,
592,44.60588455,592,19.28878784,592,11.14198971,592,10.91336727,592,6.398685455,
591,44.69998932,591,19.31830025,591,11.03036785,591,10.96864891,591,6.360980034,
590,44.68164444,590,19.27693176,590,10.89786625,590,11.01167583,590,6.304450512,
589,44.6295433,589,19.15321732,589,10.83878422,589,10.96922398,589,6.249587059,
588,44.5357399,588,19.14061928,588,10.77102089,588,11.03453541,588,6.169038296,
587,44.31064224,587,19.12183762,587,10.74098682,587,11.08839035,587,6.109446049,
586,44.09286499,586,19.11455917,586,10.62435627,586,11.20775318,586,6.036784649,
585,43.83119202,585,19.07701874,585,10.49571228,585,11.24391079,585,5.991867542,
584,43.59762192,584,18.94147301,584,10.3171978,584,11.22403717,584,5.919599533,
583,43.22530365,583,18.74971771,583,10.10355854,583,11.19463253,583,5.831423283,
582,42.85827637,582,18.51400375,582,9.94689846,582,11.05223846,582,5.742083549,
581,42.42492676,581,18.30789948,581,9.797647476,581,11.01393414,581,5.627390385,
580,41.9066124,580,18.06969261,580,9.690756798,580,10.9689436,580,5.537574291,
579,41.44576645,579,18.00902748,579,9.532169342,579,11.01499748,579,5.455302238,
578,41.0099144,578,17.82782173,578,9.374372482,578,10.97874165,578,5.393547058,
577,40.56607056,577,17.61922073,577,9.187350273,577,10.93240452,577,5.310198784,
576,40.19899368,576,17.40330124,576,8.965172768,576,10.84414005,576,5.246973991,
575,39.80022049,575,17.10132027,575,8.819081306,575,10.68309498,575,5.162534714,
574,39.33940887,574,16.87926674,574,8.700505257,574,10.62714481,574,5.066144943,
573,38.90128708,573,16.69380188,573,8.612859726,573,10.58847046,573,5.001445293,
572,38.54933167,572,16.58626556,572,8.506668091,572,10.63069344,572,4.950980663,
571,38.18676758,571,16.49059296,571,8.38434124,571,10.62607956,571,4.9150033,
570,37.93235016,570,16.29233932,570,8.229800224,570,10.5844183,570,4.867955685,
569,37.68922806,569,16.1385498,569,8.168266296,569,10.50285625,569,4.807727814,
568,37.41496658,568,16.08304787,568,8.061912537,568,10.52554893,568,4.794993877,
567,37.21414948,567,15.93282509,567,7.959557533,567,10.48743248,567,4.76965189,
566,37.04677963,566,15.8237772,566,7.817223549,566,10.44319248,566,4.736595631,
565,36.86687088,565,15.64536667,565,7.702060223,565,10.34500122,565,4.705850601,
564,36.66864014,564,15.46376324,564,7.624481678,564,10.27014732,564,4.656644821,
563,36.44169617,563,15.41477013,563,7.596566677,563,10.26514912,563,4.635713577,
562,36.24240875,562,15.30924702,562,7.568349838,562,10.2966423,562,4.629608631,
561,36.07229996,561,15.35052395,561,7.493982315,561,10.35099888,561,4.622461796,
560,35.97757339,560,15.27853298,560,7.415751457,560,10.34502602,560,4.622488022,
559,35.86713028,559,15.17234135,559,7.308636665,559,10.33049774,559,4.608044624,
558,35.74757385,558,15.05873966,558,7.227798462,558,10.26034451,558,4.598487377,
557,35.62338257,557,14.91635036,557,7.166056156,557,10.21373081,557,4.56625843,
556,35.45907211,556,14.84517193,556,7.140039444,556,10.22644806,556,4.559543133,
555,35.35293579,555,14.82338047,555,7.13738966,555,10.28801346,555,4.553424835,
554,35.25065994,554,14.85173893,554,7.090996742,554,10.37747383,554,4.573550224,
553,35.27158356,553,14.83546352,553,7.039727211,553,10.38617897,553,4.582830429,
552,35.2412529,552,14.77714062,552,6.968320847,552,10.40594673,552,4.582557201,
551,35.18745422,551,14.71033287,551,6.89081192,551,10.36867523,551,4.585938454,
550,35.10476685,550,14.60656643,550,6.859265804,550,10.30893135,550,4.564008713,
549,34.96651459,549,14.56491756,549,6.860505581,549,10.31415939,549,4.563014507,
548,34.90265656,548,14.56592274,548,6.868190289,548,10.37494469,548,4.560779095,
547,34.82161713,547,14.60754013,547,6.840522766,547,10.47084808,547,4.581498146,
546,34.8543129,546,14.6091671,546,6.808680534,546,10.50562,546,4.596485615,
545,34.79009628,545,14.56199551,545,6.736737251,545,10.47932911,545,4.590687752,
544,34.69935226,544,14.43062878,544,6.643788338,544,10.38649464,544,4.575154781,
543,34.64282608,543,14.3429575,543,6.608291149,543,10.33332253,543,4.565268517,
542,34.62233353,542,14.31336403,542,6.618151665,542,10.33965778,542,4.558365345,
541,34.6059494,541,14.34762478,541,6.65667963,541,10.42824459,541,4.574069023,
540,34.59743881,540,14.44837284,540,6.655021191,540,10.55666161,540,4.601755142,
539,34.63083649,539,14.45044327,539,6.646126747,539,10.57348061,539,4.631467342,
538,34.72594833,538,14.45167065,538,6.602237225,538,10.59431171,538,4.635241985,
537,34.70749664,537,14.41585827,537,6.558933258,537,10.58882141,537,4.635462284,
536,34.723526,536,14.33063316,536,6.548945427,536,10.52858734,536,4.639805794,
535,34.66967392,535,14.31752014,535,6.55902338,535,10.55759144,535,4.634555817,
534,34.64403915,534,14.29532909,534,6.592594624,534,10.61569595,534,4.641021729,
533,34.62197876,533,14.39736748,533,6.591171265,533,10.73935986,533,4.662181854,
532,34.64704132,532,14.40428638,532,6.5814147,532,10.7619648,532,4.690401077,
531,34.69706726,531,14.3969059,531,6.543961048,531,10.78207111,531,4.696122646,
530,34.7036705,530,14.39184856,530,6.492976665,530,10.74208355,530,4.699443817,
529,34.70263672,529,14.27402496,529,6.499687672,529,10.68508434,529,4.690380096,
528,34.62911987,528,14.26414299,528,6.505409718,528,10.69653416,528,4.685771942,
527,34.58042908,527,14.26247025,527,6.544820309,527,10.74612331,527,4.68786478,
526,34.59842682,526,14.33589649,526,6.548999786,526,10.85538673,526,4.703551292,
525,34.60256195,525,14.39324474,525,6.538227081,525,10.89173603,525,4.727138996,
524,34.65153122,524,14.38453197,524,6.510028839,524,10.91180992,524,4.733277798,
523,34.66243744,523,14.36903477,523,6.460720062,523,10.88571739,523,4.731894493,
522,34.65781403,522,14.31120968,522,6.45474577,522,10.8107481,522,4.719941616,
521,34.62330246,521,14.28304577,521,6.464000702,521,10.81777763,521,4.706381321,
520,34.56738281,520,14.29041672,520,6.510894775,520,10.8477354,520,4.707696438,
519,34.53701782,519,14.37763023,519,6.511547565,519,10.95512772,519,4.718381405,
518,34.56846619,518,14.39310932,518,6.51308918,518,10.99102688,518,4.740286827,
517,34.63412094,517,14.41154766,517,6.479748249,517,11.00327587,517,4.740962982,
516,34.663517,516,14.39129734,516,6.434560776,516,10.9993,516,4.741207123,
515,34.63591003,515,14.30275917,515,6.42459631,515,10.90321732,515,4.730358601,
514,34.58870316,514,14.29533482,514,6.433455467,514,10.9112339,514,4.71349144,
513,34.53659821,513,14.30038834,513,6.481572151,513,10.91786957,513,4.702842236,
512,34.56192017,512,14.36245251,512,6.494620323,512,11.01298428,512,4.714355469,
511,34.55399323,511,14.43494129,511,6.486971855,511,11.05040646,511,4.729072571,
510,34.59355927,510,14.42693329,510,6.463194847,510,11.05014801,510,4.732028961,
509,34.61991119,509,14.40227509,509,6.419761658,509,11.0440464,509,4.726395607,
508,34.62078094,508,14.310215,508,6.417604446,508,10.94028282,508,4.705029488,
507,34.58037949,507,14.30513668,507,6.424558163,507,10.95478821,507,4.689065933,
506,34.54156876,506,14.30621719,506,6.476027489,506,10.95663643,506,4.677899837,
505,34.51292801,505,14.36773205,505,6.482569695,505,11.05614853,505,4.68177557,
504,34.51582718,504,14.42652893,504,6.480017185,504,11.09274864,504,4.688684464,
503,34.59023285,503,14.44037819,503,6.463866711,503,11.09732437,503,4.692102909,
502,34.58633423,502,14.41201019,502,6.416726112,502,11.10022354,502,4.676193714,
501,34.60972977,501,14.30373669,501,6.411915779,501,10.99719524,501,4.667284489,
500,34.55337143,500,14.29140091,500,6.41060257,500,10.9865551,500,4.632337093,
499,34.50856018,499,14.30006218,499,6.465126038,499,10.99645901,499,4.621819973,
498,34.46143723,498,14.35369301,498,6.476901531,498,11.08456612,498,4.6272645,
497,34.50296021,497,14.40733719,497,6.471674919,497,11.13388348,497,4.63237381,
496,34.55313492,496,14.39630508,496,6.467573166,496,11.1402874,496,4.632978439,
495,34.58872223,495,14.38349628,495,6.415820122,495,11.11777687,495,4.619101048,
494,34.58045578,494,14.2852354,494,6.406158924,494,11.02651691,494,4.598798752,
493,34.54674911,493,14.23829079,493,6.406988144,493,11.0012331,493,4.564433098,
492,34.48704529,492,14.25193119,492,6.447869301,492,11.02097607,492,4.557966232,
491,34.4773407,491,14.30467796,491,6.476570129,491,11.09044361,491,4.543471336,
490,34.45975876,490,14.35934639,490,6.465812683,490,11.16153526,490,4.544780254,
489,34.51890564,489,14.32352257,489,6.463511467,489,11.15095234,489,4.541696548,
488,34.54705048,488,14.30062962,488,6.404939175,488,11.15386486,488,4.523244381,
487,34.54695511,487,14.22594833,487,6.393348217,487,11.05244541,487,4.505384922,
486,34.53683472,486,14.16277122,486,6.405785084,486,11.01951122,486,4.469935894,
485,34.47074127,485,14.14196682,485,6.438024521,485,11.03128147,485,4.451962471,
484,34.45934296,484,14.19148731,484,6.464373112,484,11.10309982,484,4.437440872,
483,34.439991,483,14.24276543,483,6.467038155,483,11.17000198,483,4.433568001,
482,34.50552368,482,14.23026752,482,6.45319128,482,11.17437077,482,4.422561169,
481,34.53901672,481,14.20629883,481,6.400765419,481,11.17755318,481,4.406152248,
480,34.54661179,480,14.14166069,480,6.399311066,480,11.07967377,480,4.375967026,
479,34.53166199,479,14.06689548,479,6.392717361,479,11.0400629,479,4.337076187,
478,34.45346832,478,14.0552578,478,6.420317173,478,11.04356098,478,4.307044506,
477,34.44749069,477,14.09067917,477,6.455188751,477,11.10240841,477,4.295698643,
476,34.43976212,476,14.15574074,476,6.449525833,476,11.1822834,476,4.283013344,
475,34.49705505,475,14.13879681,475,6.446577549,475,11.19850922,475,4.273973942,
474,34.55142593,474,14.11292744,474,6.407481194,474,11.18899536,474,4.250413418,
473,34.53978348,473,14.03645611,473,6.378302097,473,11.11031151,473,4.221169949,
472,34.52664566,472,13.92563438,472,6.38711071,472,11.05677223,472,4.175661564,
471,34.45994949,471,13.80861568,471,6.413358688,471,11.04554272,471,4.145527363,
470,34.43449402,470,13.64813614,470,6.44943428,470,11.10789871,470,4.123752117,
469,34.42321014,469,13.48929214,469,6.443962574,469,11.19841003,469,4.105411053,
468,34.47407532,468,13.45218277,468,6.435876369,468,11.20222187,468,4.081093311,
467,34.52429581,467,13.39768028,467,6.387726307,467,11.1932497,467,4.045758247,
466,34.52502441,466,13.18054199,466,6.358337402,466,11.132967,466,4.020876884,
465,34.49224091,465,12.89283752,465,6.370656013,465,11.05303478,465,3.97128129,
464,34.43164063,464,12.65536118,464,6.38289547,464,11.0538044,464,3.926049471,
463,34.40190506,463,12.59179878,463,6.424955845,463,11.0910778,463,3.893958092,
462,34.39848709,462,12.58438969,462,6.41837883,462,11.19456387,462,3.873256207,
461,34.43236542,461,12.41662312,461,6.413703918,461,11.19430351,461,3.851294994,
460,34.49172592,460,12.28443241,460,6.367708683,460,11.18523502,460,3.818777561,
459,34.4730072,459,12.22649765,459,6.344584942,459,11.13705254,459,3.774346352,
458,34.4621048,458,12.16523838,458,6.333003044,458,11.04959774,458,3.724786997,
457,34.36672211,457,12.10521507,457,6.356440544,457,11.05244064,457,3.67949748,
456,34.34247971,456,12.12891388,456,6.395852566,456,11.08953857,456,3.640571594,
455,34.35049438,455,12.31942177,455,6.40109396,455,11.18542957,455,3.615358353,
454,34.36730194,454,12.45956898,454,6.386478424,454,11.18612385,454,3.587750673,
453,34.42704773,453,12.52935791,453,6.35571909,453,11.18210506,453,3.548491716,
452,34.42581558,452,12.59270763,452,6.327067852,452,11.11675453,452,3.501643181,
451,34.42037582,451,12.64155769,451,6.311303139,451,11.0248909,451,3.449929237,
450,34.33061218,450,12.73839283,450,6.327319145,450,11.02350616,450,3.391113043,
449,34.27243042,449,12.81724453,449,6.380332947,449,11.05539131,449,3.356183052,
448,34.24393463,448,13.00274849,448,6.369008064,448,11.14227581,448,3.31183672,
447,34.29084015,447,13.08902168,447,6.359531879,447,11.15519142,447,3.279063225,
446,34.32462692,446,13.13698292,446,6.327750683,446,11.14669704,446,3.232635975,
445,34.32940674,445,13.18743801,445,6.28099966,445,11.10389805,445,3.187584162,
444,34.33390427,444,13.15963268,444,6.287463665,444,11.00843716,444,3.132792473,
443,34.28300476,443,13.18346596,443,6.306723595,443,11.00039673,443,3.070067883,
442,34.2465744,442,13.23120117,442,6.353526592,442,11.02753258,442,3.020198822,
441,34.2252655,441,13.32374191,441,6.349926472,441,11.11619282,441,2.977123737,
440,34.24274826,440,13.37290668,440,6.346182346,440,11.1311512,440,2.933950424,
439,34.27323532,439,13.36944294,439,6.317152977,439,11.11233425,439,2.886738062,
438,34.30253983,438,13.35873127,438,6.279057503,438,11.07245731,438,2.832014084,
437,34.30165863,437,13.27452469,437,6.284059525,437,10.95812511,437,2.769677162,
436,34.24750519,436,13.24905205,436,6.288355827,436,10.96144199,436,2.704215765,
435,34.1800499,435,13.22123718,435,6.333162785,435,10.97029877,435,2.645740747,
434,34.17254257,434,13.29943848,434,6.349411011,434,11.04980278,434,2.598906994,
433,34.2143364,433,13.31413269,433,6.337731361,433,11.0846262,433,2.560028076,
432,34.29080582,432,13.30508423,432,6.33001709,432,11.06831455,432,2.505408764,
431,34.32495117,431,13.23461056,431,6.290188313,431,11.06389332,431,2.455612183,
430,34.36518478,430,13.12092686,430,6.292604446,430,10.96257305,430,2.396345615,
429,34.34015656,429,13.01427174,429,6.309907913,429,10.98105049,429,2.339417934,
428,34.34316635,428,12.85011005,428,6.365423679,428,11.01443291,428,2.29227829,
427,34.32794952,427,12.63275623,427,6.386933327,427,11.10744095,427,2.244448185,
426,34.37617111,426,12.26041794,426,6.384346008,426,11.13909531,426,2.209760189,
425,34.43922424,425,11.75877857,425,6.37151432,425,11.14074421,425,2.16211772,
424,34.4675827,424,11.24678707,424,6.338484764,424,11.12666988,424,2.119562149,
423,34.50102234,423,10.78221893,423,6.333126068,423,11.02660942,423,2.073969126,
422,34.46992493,422,10.47935009,422,6.354188919,422,11.03092003,422,2.029858112,
421,34.46684647,421,10.37022495,421,6.408535004,421,11.05852985,421,1.985555649,
420,34.50819397,420,10.37785149,420,6.426043987,420,11.1705265,420,1.957547307,
419,34.57570267,419,10.38976955,419,6.43857193,419,11.23566914,419,1.938413978,
418,34.64365387,418,10.39665031,418,6.4476161,418,11.24323177,418,1.906404495,
417,34.70869827,417,10.41400814,417,6.399194241,417,11.24178505,417,1.876268506,
416,34.74393463,416,10.37557983,416,6.406816006,416,11.17127991,416,1.846536756,
415,34.7972908,415,10.36212635,415,6.425991535,415,11.16811085,415,1.810107589,
414,34.77666855,414,10.3735981,414,6.485747337,414,11.19825649,414,1.787050009,
413,34.84919357,413,10.43136883,413,6.517223835,413,11.28829288,413,1.767633915,
412,34.9120903,412,10.48056793,412,6.538779259,412,11.3638649,412,1.762163877,
411,35.01265335,411,10.49473,411,6.529238224,411,11.36805153,411,1.741608739,
410,35.08152771,410,10.49935627,410,6.49021101,410,11.36191654,410,1.725659013,
409,35.1319809,409,10.45672798,409,6.497982979,409,11.29036427,409,1.708587289,
408,35.20285416,408,10.46385193,408,6.525662422,408,11.28378391,408,1.681685209,
407,35.20545959,407,10.46897507,407,6.584061623,407,11.30293274,407,1.663048148,
406,35.22509766,406,10.52144527,406,6.622535706,406,11.39312172,406,1.656972408,
405,35.28247452,405,10.59784889,405,6.630194187,405,11.45844841,405,1.645952702,
404,35.39702606,404,10.57571983,404,6.63857317,404,11.45467091,404,1.642411351,
403,35.46720886,403,10.59001732,403,6.591299057,403,11.44004059,403,1.631617904,
402,35.49256134,402,10.55099964,402,6.570669174,402,11.36012459,402,1.614362955,
401,35.46228027,401,10.53499794,401,6.592087269,401,11.29486752,401,1.588187695,
400,35.41926956,400,10.52207851,400,6.635471344,400,11.3099966,400,1.571444631,

Hole,
Hole
Collection Time: 20/11/2023 2:30:01 PM
Operator Name  :
Scan Software Version: 4.10(464)
Parameter List :
Instrument                        Cary 5000
Instrument Version                1.12
Start (nm)                        2000.00
Stop (nm)                         400.00
X Mode                            Nanometers
Y Mode                            %T
Independent NIR                   On
Measurement Mode                  Auto
UV-Vis Scan Rate (nm/min)         600.000
UV-Vis Data Interval (nm)         1.00
UV-Vis Ave. Time (sec)            0.100
UV-Vis SBW (nm)                   2.000
NIR Scan Rate (nm/min)            1200.000
NIR Data Interval (nm)            2.00
NIR Ave. Time (sec)               0.100
NIR Energy                        3.00
Slit Height                       Full
Beam Mode                         Double
Signal-to-noise Mode              Off
UV Source                         On
Vis Source                        On
Third Source                      Off
Source Changeover (nm)            350.00
Detector Changeover (nm)          800.00
Grating Changeover (nm)           800.00
Baseline Correction               Off
Cycle Mode                        Off
Comments
Method Log     :
Method Name    :
Date/Time stamp: 20/11/2023 10:56:02 AM
Method Modifications:
X Start nm Changed: 20/11/2023 11:08:07 AM, Old: 800.00, New:1600.00
X Stop nm Changed: 20/11/2023 11:08:07 AM, Old: 200.00, New: 400.00
Y mode Changed: 20/11/2023 11:08:07 AM, Old:Abs, New:%T
Idpt Control Changed: 20/11/2023 11:08:07 AM, Old:0, New:1
NIR Scan Rate nm Changed: 20/11/2023 11:08:07 AM, Old:  600.000, New: 1200.000
NIR Interval nm Changed: 20/11/2023 11:08:07 AM, Old:     1.00, New:     2.00
Storage Changed: 20/11/2023 11:08:07 AM, Old:1, New:0
X Stop nm Changed: 20/11/2023 11:14:47 AM, Old: 400.00, New: 300.00
Saved as C:\users\Janek_Suffczynski\Leon_thiophosphates\20-11-2023.BSWSaved as C:\users\Janek_Suffczynski\Leon_thiophosphates\2023-11-20\d001_ZnO-Calibration.BSW
Opened C:\users\Janek_Suffczynski\Leon_thiophosphates\2023-11-20\d001_ZnO-Calibration.BSW
X Start nm Changed: 20/11/2023 12:23:22 PM, Old:1600.00, New:2000.00
X Stop nm Changed: 20/11/2023 12:23:22 PM, Old: 300.00, New: 400.00
End Method Modifications
<SBW (nm)> , 2.00
<Energy> , 138.04
<Slit height> , Full
<Current Wavelength> , 400.00

MnPS3,
MnPS3
Collection Time: 20/11/2023 2:34:10 PM
Operator Name  :
Scan Software Version: 4.10(464)
Parameter List :
Instrument                        Cary 5000
Instrument Version                1.12
Start (nm)                        2000.00
Stop (nm)                         400.00
X Mode                            Nanometers
Y Mode                            %T
Independent NIR                   On
Measurement Mode                  Auto
UV-Vis Scan Rate (nm/min)         600.000
UV-Vis Data Interval (nm)         1.00
UV-Vis Ave. Time (sec)            0.100
UV-Vis SBW (nm)                   2.000
NIR Scan Rate (nm/min)            1200.000
NIR Data Interval (nm)            2.00
NIR Ave. Time (sec)               0.100
NIR Energy                        3.00
Slit Height                       Full
Beam Mode                         Double
Signal-to-noise Mode              Off
UV Source                         On
Vis Source                        On
Third Source                      Off
Source Changeover (nm)            350.00
Detector Changeover (nm)          800.00
Grating Changeover (nm)           800.00
Baseline Correction               Off
Cycle Mode                        Off
Comments
Method Log     :
Method Name    :
Date/Time stamp: 20/11/2023 10:56:02 AM
Method Modifications:
X Start nm Changed: 20/11/2023 11:08:07 AM, Old: 800.00, New:1600.00
X Stop nm Changed: 20/11/2023 11:08:07 AM, Old: 200.00, New: 400.00
Y mode Changed: 20/11/2023 11:08:07 AM, Old:Abs, New:%T
Idpt Control Changed: 20/11/2023 11:08:07 AM, Old:0, New:1
NIR Scan Rate nm Changed: 20/11/2023 11:08:07 AM, Old:  600.000, New: 1200.000
NIR Interval nm Changed: 20/11/2023 11:08:07 AM, Old:     1.00, New:     2.00
Storage Changed: 20/11/2023 11:08:07 AM, Old:1, New:0
X Stop nm Changed: 20/11/2023 11:14:47 AM, Old: 400.00, New: 300.00
Saved as C:\users\Janek_Suffczynski\Leon_thiophosphates\20-11-2023.BSWSaved as C:\users\Janek_Suffczynski\Leon_thiophosphates\2023-11-20\d001_ZnO-Calibration.BSW
Opened C:\users\Janek_Suffczynski\Leon_thiophosphates\2023-11-20\d001_ZnO-Calibration.BSW
X Start nm Changed: 20/11/2023 12:23:22 PM, Old:1600.00, New:2000.00
X Stop nm Changed: 20/11/2023 12:23:22 PM, Old: 300.00, New: 400.00
End Method Modifications
<SBW (nm)> , 2.00
<Energy> , 138.04
<Slit height> , Full
<Current Wavelength> , 400.00

CrPS4,
CrPS4
Collection Time: 20/11/2023 2:38:59 PM
Operator Name  :
Scan Software Version: 4.10(464)
Parameter List :
Instrument                        Cary 5000
Instrument Version                1.12
Start (nm)                        2000.00
Stop (nm)                         400.00
X Mode                            Nanometers
Y Mode                            %T
Independent NIR                   On
Measurement Mode                  Auto
UV-Vis Scan Rate (nm/min)         600.000
UV-Vis Data Interval (nm)         1.00
UV-Vis Ave. Time (sec)            0.100
UV-Vis SBW (nm)                   2.000
NIR Scan Rate (nm/min)            1200.000
NIR Data Interval (nm)            2.00
NIR Ave. Time (sec)               0.100
NIR Energy                        3.00
Slit Height                       Full
Beam Mode                         Double
Signal-to-noise Mode              Off
UV Source                         On
Vis Source                        On
Third Source                      Off
Source Changeover (nm)            350.00
Detector Changeover (nm)          800.00
Grating Changeover (nm)           800.00
Baseline Correction               Off
Cycle Mode                        Off
Comments
Method Log     :
Method Name    :
Date/Time stamp: 20/11/2023 10:56:02 AM
Method Modifications:
X Start nm Changed: 20/11/2023 11:08:07 AM, Old: 800.00, New:1600.00
X Stop nm Changed: 20/11/2023 11:08:07 AM, Old: 200.00, New: 400.00
Y mode Changed: 20/11/2023 11:08:07 AM, Old:Abs, New:%T
Idpt Control Changed: 20/11/2023 11:08:07 AM, Old:0, New:1
NIR Scan Rate nm Changed: 20/11/2023 11:08:07 AM, Old:  600.000, New: 1200.000
NIR Interval nm Changed: 20/11/2023 11:08:07 AM, Old:     1.00, New:     2.00
Storage Changed: 20/11/2023 11:08:07 AM, Old:1, New:0
X Stop nm Changed: 20/11/2023 11:14:47 AM, Old: 400.00, New: 300.00
Saved as C:\users\Janek_Suffczynski\Leon_thiophosphates\20-11-2023.BSWSaved as C:\users\Janek_Suffczynski\Leon_thiophosphates\2023-11-20\d001_ZnO-Calibration.BSW
Opened C:\users\Janek_Suffczynski\Leon_thiophosphates\2023-11-20\d001_ZnO-Calibration.BSW
X Start nm Changed: 20/11/2023 12:23:22 PM, Old:1600.00, New:2000.00
X Stop nm Changed: 20/11/2023 12:23:22 PM, Old: 300.00, New: 400.00
End Method Modifications
<SBW (nm)> , 2.00
<Energy> , 138.04
<Slit height> , Full
<Current Wavelength> , 400.00

NiPS3,
NiPS3
Collection Time: 20/11/2023 2:42:48 PM
Operator Name  :
Scan Software Version: 4.10(464)
Parameter List :
Instrument                        Cary 5000
Instrument Version                1.12
Start (nm)                        2000.00
Stop (nm)                         400.00
X Mode                            Nanometers
Y Mode                            %T
Independent NIR                   On
Measurement Mode                  Auto
UV-Vis Scan Rate (nm/min)         600.000
UV-Vis Data Interval (nm)         1.00
UV-Vis Ave. Time (sec)            0.100
UV-Vis SBW (nm)                   2.000
NIR Scan Rate (nm/min)            1200.000
NIR Data Interval (nm)            2.00
NIR Ave. Time (sec)               0.100
NIR Energy                        3.00
Slit Height                       Full
Beam Mode                         Double
Signal-to-noise Mode              Off
UV Source                         On
Vis Source                        On
Third Source                      Off
Source Changeover (nm)            350.00
Detector Changeover (nm)          800.00
Grating Changeover (nm)           800.00
Baseline Correction               Off
Cycle Mode                        Off
Comments
Method Log     :
Method Name    :
Date/Time stamp: 20/11/2023 10:56:02 AM
Method Modifications:
X Start nm Changed: 20/11/2023 11:08:07 AM, Old: 800.00, New:1600.00
X Stop nm Changed: 20/11/2023 11:08:07 AM, Old: 200.00, New: 400.00
Y mode Changed: 20/11/2023 11:08:07 AM, Old:Abs, New:%T
Idpt Control Changed: 20/11/2023 11:08:07 AM, Old:0, New:1
NIR Scan Rate nm Changed: 20/11/2023 11:08:07 AM, Old:  600.000, New: 1200.000
NIR Interval nm Changed: 20/11/2023 11:08:07 AM, Old:     1.00, New:     2.00
Storage Changed: 20/11/2023 11:08:07 AM, Old:1, New:0
X Stop nm Changed: 20/11/2023 11:14:47 AM, Old: 400.00, New: 300.00
Saved as C:\users\Janek_Suffczynski\Leon_thiophosphates\20-11-2023.BSWSaved as C:\users\Janek_Suffczynski\Leon_thiophosphates\2023-11-20\d001_ZnO-Calibration.BSW
Opened C:\users\Janek_Suffczynski\Leon_thiophosphates\2023-11-20\d001_ZnO-Calibration.BSW
X Start nm Changed: 20/11/2023 12:23:22 PM, Old:1600.00, New:2000.00
X Stop nm Changed: 20/11/2023 12:23:22 PM, Old: 300.00, New: 400.00
End Method Modifications
<SBW (nm)> , 2.00
<Energy> , 138.04
<Slit height> , Full
<Current Wavelength> , 400.00

FePS3,
FePS3
Collection Time: 20/11/2023 2:45:46 PM
Operator Name  :
Scan Software Version: 4.10(464)
Parameter List :
Instrument                        Cary 5000
Instrument Version                1.12
Start (nm)                        2000.00
Stop (nm)                         400.00
X Mode                            Nanometers
Y Mode                            %T
Independent NIR                   On
Measurement Mode                  Auto
UV-Vis Scan Rate (nm/min)         600.000
UV-Vis Data Interval (nm)         1.00
UV-Vis Ave. Time (sec)            0.100
UV-Vis SBW (nm)                   2.000
NIR Scan Rate (nm/min)            1200.000
NIR Data Interval (nm)            2.00
NIR Ave. Time (sec)               0.100
NIR Energy                        3.00
Slit Height                       Full
Beam Mode                         Double
Signal-to-noise Mode              Off
UV Source                         On
Vis Source                        On
Third Source                      Off
Source Changeover (nm)            350.00
Detector Changeover (nm)          800.00
Grating Changeover (nm)           800.00
Baseline Correction               Off
Cycle Mode                        Off
Comments
Method Log     :
Method Name    :
Date/Time stamp: 20/11/2023 10:56:02 AM
Method Modifications:
X Start nm Changed: 20/11/2023 11:08:07 AM, Old: 800.00, New:1600.00
X Stop nm Changed: 20/11/2023 11:08:07 AM, Old: 200.00, New: 400.00
Y mode Changed: 20/11/2023 11:08:07 AM, Old:Abs, New:%T
Idpt Control Changed: 20/11/2023 11:08:07 AM, Old:0, New:1
NIR Scan Rate nm Changed: 20/11/2023 11:08:07 AM, Old:  600.000, New: 1200.000
NIR Interval nm Changed: 20/11/2023 11:08:07 AM, Old:     1.00, New:     2.00
Storage Changed: 20/11/2023 11:08:07 AM, Old:1, New:0
X Stop nm Changed: 20/11/2023 11:14:47 AM, Old: 400.00, New: 300.00
Saved as C:\users\Janek_Suffczynski\Leon_thiophosphates\20-11-2023.BSWSaved as C:\users\Janek_Suffczynski\Leon_thiophosphates\2023-11-20\d001_ZnO-Calibration.BSW
Opened C:\users\Janek_Suffczynski\Leon_thiophosphates\2023-11-20\d001_ZnO-Calibration.BSW
X Start nm Changed: 20/11/2023 12:23:22 PM, Old:1600.00, New:2000.00
X Stop nm Changed: 20/11/2023 12:23:22 PM, Old: 300.00, New: 400.00
End Method Modifications
<SBW (nm)> , 2.00
<Energy> , 138.04
<Slit height> , Full
<Current Wavelength> , 400.00

