Hole,,MnPS3,,CrPS4,,NiPS3,,FePS3,,
Wavelength (nm),%T,Wavelength (nm),%T,Wavelength (nm),%T,Wavelength (nm),%T,Wavelength (nm),%T,
2000,231.8443604,2000,183.6027985,2000,180.4681702,2000,283.4862061,2000,142.4281769,
1998,233.0242462,1998,184.2126007,1998,180.4319153,1998,284.4737854,1998,142.9144287,
1996,233.0911865,1996,184.8852997,1996,179.0555267,1996,285.0757446,1996,143.7802582,
1994,233.390625,1994,185.9849854,1994,179.5950012,1994,285.7695923,1994,144.6200562,
1992,233.460907,1992,187.2133484,1992,180.2384186,1992,286.3711243,1992,144.9888458,
1990,234.2580872,1990,187.5756378,1990,181.4342346,1990,286.7522583,1990,145.3848877,
1988,234.7681274,1988,187.817627,1988,183.4484711,1988,287.5281677,1988,145.2241821,
1986,235.2542419,1986,187.3434601,1986,183.8758698,1986,288.413147,1986,145.2307129,
1984,236.5308838,1984,187.5483856,1984,183.8598328,1984,289.2410889,1984,145.6886597,
1982,237.1981354,1982,187.8628082,1982,182.394577,1982,290.1425781,1982,146.5039368,
1980,237.6112518,1980,188.6125946,1980,182.6046753,1980,290.6719666,1980,147.4093018,
1978,237.4356537,1978,189.69104,1978,183.2947998,1978,291.2050476,1978,147.7892609,
1976,237.7138824,1976,189.8805847,1976,184.6476746,1976,291.612854,1976,148.1911163,
1974,238.8374634,1974,189.70401,1974,186.7444458,1974,292.4723511,1974,148.1009521,
1972,239.7096863,1972,189.0094757,1972,186.9270477,1972,293.2778625,1972,148.0602112,
1970,240.8093262,1970,189.6097412,1970,186.9256897,1970,294.1620178,1970,148.5977173,
1968,241.209549,1968,190.6898041,1968,185.856842,1968,295.3371582,1968,149.2808533,
1966,241.8856201,1966,191.6347961,1966,185.92099,1966,295.7242126,1966,150.3484802,
1964,241.9358978,1964,193.3683624,1964,186.462326,1964,296.7097473,1964,150.7904816,
1962,242.1586304,1962,194.0959015,1962,187.4914398,1962,297.0901489,1962,151.0882111,
1960,242.6364136,1960,194.6916504,1960,189.8739166,1960,297.7163086,1960,151.0634003,
1958,243.5215302,1958,194.0169373,1958,190.2243195,1958,298.4762573,1958,151.045578,
1956,244.9373169,1956,194.0082245,1956,190.0586395,1956,299.0340576,1956,151.5325623,
1954,245.4437256,1954,194.3851166,1954,188.4785614,1954,299.8171692,1954,152.3345642,
1952,245.7361908,1952,195.2044373,1952,188.47229,1952,300.4138184,1952,153.4700317,
1950,245.883255,1950,196.5904694,1950,189.4579315,1950,301.3070068,1950,154.1217499,
1948,246.1866608,1948,196.3043213,1948,190.2746735,1948,301.9299927,1948,154.4906006,
1946,246.7249908,1946,195.75,1946,192.0675964,1946,301.9524231,1946,154.2298431,
1944,247.2603302,1944,195.0817261,1944,192.5333099,1944,302.3510437,1944,154.1372375,
1942,248.5496979,1942,195.2636414,1942,192.7521362,1942,303.5136108,1942,154.6426697,
1940,249.4397125,1940,195.7635803,1940,191.4735107,1940,304.6759949,1940,155.4746399,
1938,249.6654053,1938,195.8002472,1938,190.1798553,1938,303.8164978,1938,156.5617981,
1936,249.3035736,1936,198.0407867,1936,191.2255707,1936,304.4425354,1936,156.8604584,
1934,249.6128082,1934,199.1058502,1934,192.6343842,1934,305.6069031,1934,157.3234253,
1932,250.6195068,1932,199.1996002,1932,194.5769653,1932,306.2178955,1932,157.5178375,
1930,250.3559113,1930,198.4301147,1930,194.7381134,1930,306.6011658,1930,157.3470001,
1928,250.7081299,1928,198.2462006,1928,194.2863922,1928,306.5250549,1928,156.6253357,
1926,252.177887,1926,199.6107635,1926,194.0059357,1926,308.4570313,1926,157.2794342,
1924,252.3779144,1924,199.4970551,1924,192.8322144,1924,308.7023621,1924,158.9902954,
1922,251.1435242,1922,200.1316986,1922,192.8847809,1922,307.8847656,1922,158.9925995,
1920,250.4694672,1920,199.7322845,1920,192.9125366,1920,307.2975159,1920,158.3247986,
1918,251.7348022,1918,200.3875427,1918,195.8185272,1918,308.2245789,1918,158.2634583,
1916,252.3840942,1916,199.9072876,1916,196.8392639,1916,309.5307312,1916,158.6299286,
1914,252.1032104,1914,199.662323,1914,197.0789337,1914,310.7956543,1914,158.0203247,
1912,252.1303406,1912,200.4117432,1912,196.1396332,1912,311.8924866,1912,157.3232727,
1910,251.8789825,1910,201.2546844,1910,195.7406464,1910,313.0929565,1910,157.6086426,
1908,251.0534973,1908,202.1918793,1908,195.6514587,1908,312.9076843,1908,157.7008362,
1906,249.7961731,1906,201.5565338,1906,195.3670349,1906,312.1185303,1906,156.9598541,
1904,250.6174622,1904,202.0592957,1904,198.0244293,1904,312.2432861,1904,156.2791443,
1902,251.3411713,1902,201.6435852,1902,198.7515564,1902,313.8489685,1902,155.8343201,
1900,251.6438904,1900,201.3883057,1900,198.9929657,1900,314.4472961,1900,156.0015869,
1898,251.043457,1898,201.3770752,1898,197.6939697,1898,314.7975159,1898,155.4996185,
1896,250.384613,1896,200.9602966,1896,195.649765,1896,315.1353149,1896,155.2495422,
1894,250.2015533,1894,200.4113159,1894,194.1598663,1894,312.416748,1894,155.7173462,
1892,248.7468719,1892,198.7829742,1892,192.5367889,1892,309.1085205,1892,156.0543365,
1890,248.4624634,1890,196.7023315,1890,192.1962585,1890,305.4447021,1890,156.1426697,
1888,250.6564789,1888,195.2661285,1888,192.0561523,1888,303.3348083,1888,156.5605469,
1886,251.6300507,1886,194.9296265,1886,191.5716705,1886,303.5455322,1886,158.6447906,
1884,251.0094452,1884,196.168869,1884,191.3973236,1884,304.4734497,1884,159.3495789,
1882,250.288681,1882,197.3018341,1882,191.006485,1882,306.4050293,1882,159.7550201,
1880,249.5244446,1880,199.0327606,1880,191.9049683,1880,308.511261,1880,159.4075012,
1878,248.5648193,1878,198.9201202,1878,191.7481842,1878,307.9083252,1878,159.1268768,
1876,247.5994873,1876,198.5298462,1876,193.2633362,1876,307.2932739,1876,158.1548462,
1874,249.2222595,1874,198.2906036,1874,195.094696,1874,308.3255005,1874,157.237381,
1872,252.0321655,1872,198.2452393,1872,196.0036316,1872,310.4798889,1872,157.9310608,
1870,253.2536926,1870,200.7724457,1870,197.6627197,1870,314.4390869,1870,158.7886963,
1868,251.7777252,1868,202.0813293,1868,197.5489044,1868,318.1851501,1868,158.5837555,
1866,250.6941376,1866,201.5677948,1866,196.4537811,1866,317.340332,1866,157.6518402,
1864,250.1162567,1864,201.0405579,1864,195.7294922,1864,315.1686401,1864,157.1441498,
1862,250.2740173,1862,200.5969238,1862,196.8708801,1862,313.9537048,1862,156.856842,
1860,252.272583,1860,198.9393158,1860,196.2848358,1860,312.0516968,1860,157.0340576,
1858,254.4729309,1858,199.0976868,1858,196.9729156,1858,311.794342,1858,159.0214081,
1856,253.8067627,1856,199.2020416,1856,195.161499,1856,312.6210938,1856,159.4004517,
1854,253.2169342,1854,198.8963318,1854,192.6205444,1854,311.4012146,1854,159.9141083,
1852,253.5588684,1852,200.9601135,1852,194.1903687,1852,311.9561157,1852,161.0949402,
1850,251.5715637,1850,201.6578674,1850,194.6370392,1850,314.0451965,1850,160.6813812,
1848,252.18013,1848,200.8450928,1848,195.3446198,1848,313.0085144,1848,160.3193512,
1846,252.3712921,1846,201.6773529,1846,198.5874176,1846,314.7239075,1846,159.6407471,
1844,252.1747131,1844,200.9552002,1844,198.7398987,1844,317.0288391,1844,158.6043549,
1842,254.3794403,1842,200.6790924,1842,197.9227142,1842,317.2176514,1842,158.7807617,
1840,254.1694183,1840,201.3118286,1840,196.8788147,1840,318.2775879,1840,159.7033844,
1838,252.778717,1838,201.7318726,1838,196.7045135,1838,318.2046509,1838,159.1611938,
1836,253.971283,1836,203.0198822,1836,197.7497559,1836,318.7482605,1836,159.3125,
1834,254.9597778,1834,204.2423706,1834,200.4190674,1834,321.3023682,1834,160.1488495,
1832,254.3280334,1832,203.8799286,1832,201.9528809,1832,322.1433716,1832,158.9797211,
1830,254.0820313,1830,202.7725677,1830,201.0650177,1830,321.4518127,1830,158.1270294,
1828,254.8352966,1828,202.9167175,1828,200.3710785,1828,321.3727722,1828,157.8713226,
1826,255.9108734,1826,203.2696075,1826,198.5012817,1826,321.9744263,1826,158.6977844,
1824,256.9665527,1824,204.5535583,1824,199.1703339,1824,322.4816284,1824,160.121048,
1822,255.5971832,1822,205.2486725,1822,199.2624512,1822,322.8956604,1822,160.5607147,
1820,255.0686798,1820,204.4170837,1820,199.7014313,1820,321.5631104,1820,159.9903717,
1818,256.2255859,1818,204.565094,1818,202.1766205,1818,322.3376465,1818,159.5887146,
1816,256.7223816,1816,203.6936035,1816,202.1976013,1816,323.5198364,1816,159.7595062,
1814,257.7992249,1814,203.7889252,1814,201.7420959,1814,323.7059326,1814,160.1203918,
1812,257.3955688,1812,203.9227295,1812,199.6787872,1812,324.3104248,1812,160.6006622,
1810,257.6674194,1810,204.2329559,1810,199.1281586,1810,323.7306824,1810,161.0532837,
1808,257.9951172,1808,205.5095367,1808,199.9586639,1808,323.7271423,1808,161.8177338,
1806,258.0800781,1806,205.7076416,1806,200.9854126,1806,324.0969543,1806,162.3230896,
1804,258.7968445,1804,205.4570007,1804,202.9384918,1804,324.2559509,1804,161.8791046,
1802,259.2860107,1802,204.524231,1802,202.8971405,1802,324.8113708,1802,161.8939819,
1800,260.5126953,1800,204.7939606,1800,202.7378998,1800,325.1187439,1800,162.2206268,
1798,261.0879517,1798,205.3515167,1798,200.9463043,1798,326.0608215,1798,163.1273346,
1796,261.5307617,1796,206.013031,1796,200.7753601,1796,326.1902771,1796,164.1428223,
1794,261.1651917,1794,207.1951599,1794,201.1566467,1794,326.1780396,1794,164.4692688,
1792,261.2586365,1792,207.4051819,1792,202.0997925,1792,326.0681763,1792,164.6354675,
1790,261.8894958,1790,207.3715515,1790,203.974884,1790,326.1376038,1790,164.4682617,
1788,262.4341125,1788,206.3939362,1788,203.8442383,1788,326.134491,1788,164.3960114,
1786,262.9670715,1786,206.2792969,1786,203.2393036,1786,325.887207,1786,164.4924316,
1784,263.0166321,1784,206.0674744,1784,200.7655792,1784,325.4627686,1784,164.9073792,
1782,262.8047485,1782,206.0499268,1782,199.7746735,1782,324.4836731,1782,165.8891907,
1780,261.7330933,1780,206.6307526,1780,199.7126312,1780,323.499176,1780,165.8195496,
1778,260.8347168,1778,206.1019135,1778,199.9550323,1778,322.4933472,1778,165.5648193,
1776,260.0744629,1776,205.1949005,1776,201.41008,1776,321.8187561,1776,164.6607361,
1774,259.2087402,1774,203.1569214,1774,200.971405,1774,320.9469604,1774,163.18927,
1772,258.9707336,1772,202.2774963,1772,200.1656952,1772,320.3419189,1772,162.3437805,
1770,258.5021362,1770,201.9496613,1770,197.9595795,1770,319.9826355,1770,162.0345764,
1768,258.0378418,1768,201.9582977,1768,197.1666565,1768,319.5402832,1768,162.3751678,
1766,257.0927734,1766,203.1249542,1766,197.5882568,1766,319.3746948,1766,162.0287323,
1764,256.5851746,1764,203.4517822,1764,198.2464752,1764,319.2923889,1764,161.7289429,
1762,256.8439331,1762,203.6382751,1762,200.530838,1762,319.6246948,1762,161.1339874,
1760,257.0915222,1760,202.9235535,1760,200.6975098,1760,319.8694763,1760,160.4504242,
1758,258.264801,1758,202.7945709,1758,200.2739716,1758,319.9914856,1758,160.5983582,
1756,258.929718,1756,202.8478699,1756,198.2631226,1756,319.8887329,1756,161.1493988,
1754,259.1886902,1754,202.7668762,1754,196.8276215,1754,318.766449,1754,162.3868408,
1752,258.8851929,1752,202.8948822,1752,196.0324554,1752,317.019928,1752,162.9990387,
1750,258.0907898,1750,201.4897766,1750,194.950882,1750,314.1837463,1750,163.1203003,
1748,257.3436279,1748,199.657135,1748,195.1869202,1748,311.1990967,1748,162.5895844,
1746,255.9871368,1746,197.1491394,1746,193.9040527,1746,308.4833984,1746,161.3370361,
1744,254.5469513,1744,195.1653137,1744,192.033493,1744,306.1083069,1744,160.2835999,
1742,251.4949036,1742,193.454071,1742,188.8586121,1742,303.6209717,1742,158.5758514,
1740,247.6452332,1740,191.6519623,1740,186.0198212,1740,300.5213013,1740,156.8459167,
1738,243.955658,1738,190.8964996,1738,184.4289856,1738,297.8605957,1738,154.4390564,
1736,240.8474731,1736,189.5796051,1736,183.5867004,1736,295.3681335,1736,152.2801819,
1734,239.2425842,1734,188.9648132,1734,184.8509979,1734,294.1635742,1734,150.3073273,
1732,238.5468445,1732,188.4370117,1732,185.7270355,1732,294.8773499,1732,148.424942,
1730,238.9231262,1730,188.7617798,1730,186.5431519,1730,296.5608826,1730,147.5269928,
1728,239.514679,1728,190.0846558,1728,186.4641418,1728,299.0800476,1728,147.1158295,
1726,240.3612823,1726,191.6033936,1726,186.9290314,1726,301.4896545,1726,147.8171844,
1724,242.0280151,1724,194.1847382,1724,188.769577,1724,304.3150635,1724,148.7187805,
1722,244.7317657,1722,196.3349152,1722,191.1705322,1722,307.3197632,1722,150.1207428,
1720,248.9360504,1720,198.7189484,1720,195.5896149,1720,311.1001282,1720,152.2251129,
1718,253.2918243,1718,200.7437439,1718,199.0622711,1718,315.6192932,1718,154.0317078,
1716,257.9605713,1716,202.8637695,1716,201.5092773,1716,320.0497742,1716,156.5819397,
1714,261.9791565,1714,205.4725342,1714,202.6718445,1714,324.0891113,1714,158.9630432,
1712,264.9545898,1712,208.0798187,1712,203.3883057,1712,327.4645691,1712,161.6950684,
1710,267.6083374,1710,211.3431244,1710,205.572464,1710,330.6742554,1710,164.0184937,
1708,269.742981,1708,213.9753418,1708,207.8114777,1708,333.474884,1708,165.7832947,
1706,272.5548706,1706,215.803009,1706,211.3403625,1706,335.9446411,1706,167.2556,
1704,275.1236877,1704,217.1055603,1704,213.8759918,1704,338.5271301,1704,168.0531616,
1702,277.9842834,1702,217.9535217,1702,214.8772736,1702,340.815918,1702,169.3597717,
1700,280.2010498,1700,219.5918274,1700,215.0863953,1700,342.9420166,1700,170.7794037,
1698,281.8140564,1698,221.0886993,1698,214.5102997,1698,344.759613,1698,172.6225433,
1696,283.1860962,1696,223.1739502,1696,215.6418762,1696,346.2500305,1696,174.0172272,
1694,283.8866882,1694,224.5692749,1694,216.942337,1694,347.2440491,1694,174.8818054,
1692,285.0901794,1692,225.2200623,1692,219.3865356,1692,348.3463135,1692,175.394104,
1690,286.5452881,1690,225.2626953,1690,221.3028259,1690,349.5791321,1690,175.265152,
1688,288.1724243,1688,224.851059,1688,221.708847,1688,350.5492249,1688,175.6899414,
1686,289.4282227,1686,225.6631317,1686,221.3444977,1686,351.6262207,1686,176.231308,
1684,290.2606812,1684,226.7167511,1684,219.9047089,1684,352.5627747,1684,177.4175415,
1682,290.8857117,1682,228.228302,1682,220.7062988,1682,353.1018982,1682,178.3271027,
1680,290.6580811,1680,229.6368866,1680,221.505188,1680,353.5291138,1680,178.6401978,
1678,291.41745,1678,230.2523651,1678,223.5121765,1678,353.9039307,1678,178.8251343,
1676,292.4238281,1676,230.3344421,1676,225.4543762,1676,354.7192383,1676,178.3501434,
1674,293.3880615,1674,229.8906555,1674,225.6854248,1674,355.261261,1674,178.3287811,
1672,294.5908203,1672,230.6868286,1672,225.2616577,1672,356.0790405,1672,178.6187439,
1670,295.0890503,1670,231.4387512,1670,223.609787,1670,356.778717,1670,179.5648804,
1668,295.3280945,1668,232.6966095,1668,224.0929871,1668,356.9880066,1668,180.4411621,
1666,295.0865173,1666,233.8476257,1666,224.9612274,1666,357.3814697,1666,180.4081268,
1664,295.6958008,1664,233.8621368,1664,226.6504211,1664,357.4986572,1664,180.4842682,
1662,296.1197815,1662,233.5310669,1662,228.8273621,1662,358.0950317,1662,180.0075836,
1660,296.9943848,1660,232.8534393,1660,229.0879669,1660,358.8259583,1660,179.7535706,
1658,298.4155884,1658,233.2266541,1658,228.7272644,1658,359.4013672,1658,180.0152283,
1656,298.6035156,1656,233.6841888,1656,226.7979889,1656,360.0487061,1656,180.7935333,
1654,299.008667,1654,234.9352417,1654,227.2268372,1654,360.4571228,1654,181.5955353,
1652,298.7165222,1652,236.3868408,1652,227.9786987,1652,360.8880615,1652,181.7929993,
1650,299.0259399,1650,236.4938202,1650,229.2538605,1650,360.671875,1650,181.87146,
1648,299.4853516,1648,236.6452637,1648,231.561203,1648,361.1947632,1648,181.2513275,
1646,300.1313171,1646,235.9633026,1646,231.7463226,1646,361.7402649,1646,180.9320526,
1644,301.335022,1644,236.2496185,1644,231.2635651,1644,362.4437561,1644,181.1979523,
1642,301.5379028,1642,236.8035278,1642,229.2690735,1642,362.9492798,1642,181.8004456,
1640,301.9927368,1640,237.6013336,1640,229.5600586,1640,363.2587585,1640,182.6047211,
1638,301.2998047,1638,238.5090332,1638,230.0884705,1638,363.3918457,1638,182.7657166,
1636,301.5511475,1636,238.4749908,1636,231.253952,1636,363.3994446,1636,182.7663116,
1634,302.2894287,1634,238.251236,1634,233.6899261,1634,363.7072754,1634,182.0599976,
1632,302.7442322,1632,237.1916504,1632,233.9266052,1632,364.5241394,1632,181.6606598,
1630,303.8869019,1630,237.353302,1630,233.6670837,1630,364.8095398,1630,181.7482452,
1628,304.3807678,1628,237.985199,1628,231.5352478,1628,365.486908,1628,182.2860565,
1626,304.5754395,1626,238.7966614,1626,231.5161743,1626,365.5642395,1626,183.2250824,
1624,303.829834,1624,240.207077,1624,232.053894,1624,365.7207642,1624,183.1529541,
1622,304.0958252,1622,240.6059265,1622,233.1910095,1622,365.8531189,1622,183.1927948,
1620,304.5635376,1620,240.6679077,1620,235.7509308,1620,366.1352539,1620,182.6830597,
1618,305.0928345,1618,239.7500305,1618,236.0043335,1618,366.8202515,1618,182.0212097,
1616,306.5376892,1616,239.8626099,1616,235.8323975,1616,367.2865295,1616,182.1876526,
1614,306.9823608,1614,240.1368103,1614,233.8541718,1614,367.8587341,1614,182.6264038,
1612,306.9901428,1612,240.7047729,1612,233.5900116,1612,368.0305481,1612,183.4565125,
1610,306.6245422,1610,242.2036133,1610,234.1877441,1610,368.3348999,1610,183.5873566,
1608,306.5978088,1608,242.1528625,1608,235.1943512,1608,368.4697266,1608,183.6117554,
1606,307.1242676,1606,242.0716705,1606,237.8707123,1606,368.7312317,1606,183.1694946,
1604,307.7758179,1604,240.9905243,1604,238.1702728,1604,369.0142822,1604,182.4064789,
1602,308.9394226,1602,240.9679871,1602,238.054306,1602,369.5393982,1602,182.4668427,
1600,309.3037415,1600,241.3902283,1600,236.3218384,1600,370.2871399,1600,182.8193512,
1598,309.6001282,1598,242.0727234,1598,235.7754669,1598,370.3189697,1598,183.7054749,
1596,309.0431213,1596,243.6375122,1596,236.3405457,1596,370.5171204,1596,183.8710022,
1594,308.977417,1594,244.1009979,1594,237.2996979,1594,370.5241089,1594,183.8196869,
1592,309.4811401,1592,244.1635437,1592,240.0194702,1592,370.7628784,1592,183.3660278,
1590,309.7422485,1590,243.3348694,1590,240.3548279,1590,371.1501465,1590,182.6548767,
1588,311.0054932,1588,243.3794708,1588,240.280838,1588,371.4768372,1588,182.5648193,
1586,311.5106506,1586,243.6684418,1586,238.504364,1586,371.9328918,1586,182.9004059,
1584,311.5899658,1584,243.9494171,1584,237.7429047,1584,372.0740662,1584,183.9410248,
1582,311.0742188,1582,245.2052612,1582,238.2136383,1582,372.1000366,1582,183.9733429,
1580,310.8475342,1580,245.2206573,1580,238.836319,1580,372.0491333,1580,183.8540497,
1578,311.1527405,1578,244.8147278,1578,241.651825,1578,372.0923767,1578,183.4780426,
1576,311.7427063,1576,243.9443054,1576,242.0800018,1576,372.4192505,1576,182.6428833,
1574,312.8111267,1574,243.740799,1574,241.7212067,1574,372.6528625,1574,182.5879669,
1572,313.2213745,1572,244.3001099,1572,240.1584625,1572,373.0588074,1572,182.7278137,
1570,313.2699585,1570,244.7965393,1570,239.0325012,1570,373.1362915,1570,183.5825653,
1568,312.7983704,1568,246.2918091,1568,239.441803,1568,373.0762939,1568,183.8312988,
1566,312.4855652,1566,246.605545,1566,239.8742371,1566,372.880249,1566,183.693512,
1564,312.8985291,1564,246.3050842,1564,242.3227997,1564,372.8179016,1564,183.2805481,
1562,313.4229431,1562,245.3028412,1562,242.9460297,1562,373.1644897,1562,182.3689575,
1560,314.3605347,1560,244.594162,1560,242.6265259,1560,373.1897583,1560,182.1961823,
1558,314.905365,1558,244.8528595,1558,240.9079742,1558,373.4464111,1558,182.2466583,
1556,314.7026672,1556,245.1548157,1556,239.3323975,1556,373.3607178,1556,183.1208191,
1554,314.5379333,1554,246.3178406,1554,239.6822968,1554,373.1848755,1554,183.3383484,
1552,313.8538513,1552,246.6061401,1552,240.1906433,1552,372.8740845,1552,183.2371216,
1550,314.086853,1550,246.8407593,1550,242.3165588,1550,372.6235962,1550,182.8357544,
1548,314.5981445,1548,245.8884735,1548,243.1334229,1548,372.630188,1548,181.7485504,
1546,315.4058533,1546,244.9540863,1546,242.7815399,1546,372.5562134,1546,181.5592041,
1544,315.9752502,1544,245.2470093,1544,241.2133179,1544,372.6617126,1544,181.5793152,
1542,316.1308899,1542,245.5814056,1542,239.4429169,1542,372.509491,1542,182.4324493,
1540,315.757019,1540,246.7467041,1540,239.6106262,1540,372.4906311,1540,182.6126862,
1538,315.2658386,1538,247.1425018,1538,240.1005096,1538,372.1753235,1538,182.4575958,
1536,315.5692139,1536,247.2210236,1536,242.099762,1536,371.8884888,1536,182.2190399,
1534,315.8499146,1534,246.6168365,1534,243.0366058,1534,371.851593,1534,181.0815735,
1532,317.0367126,1532,245.7795868,1532,242.7669067,1532,371.938385,1532,180.7617188,
1530,317.6590576,1530,245.9532928,1530,241.558197,1530,372.024353,1530,180.8227081,
1528,317.7339172,1528,246.1882782,1528,239.5091095,1528,371.9675903,1528,181.6263275,
1526,317.7087097,1526,247.3470764,1526,239.7859802,1526,371.5322266,1526,181.8534088,
1524,316.9328308,1524,248.0070648,1524,240.2598114,1524,370.9899902,1524,181.7994537,
1522,317.3202209,1522,248.1120148,1522,241.9420013,1522,370.7044983,1522,181.5169525,
1520,317.7521667,1520,247.5332489,1520,243.2946014,1520,370.6166992,1520,180.4962921,
1518,318.4942932,1518,246.8564301,1518,243.0930634,1518,370.5666199,1518,180.1337433,
1516,319.2575989,1516,247.1419067,1516,241.9170074,1516,370.5681458,1516,180.0757599,
1514,319.2282104,1514,247.3055115,1514,239.7925873,1514,370.4910889,1514,180.8477478,
1512,319.3017273,1512,248.0519562,1512,240.0153656,1512,370.068512,1512,181.1605835,
1510,318.5263062,1510,248.7034302,1510,240.3698883,1510,369.4703369,1510,180.9762573,
1508,318.835083,1508,248.4904785,1508,241.8566284,1508,368.9694214,1508,180.7828674,
1506,318.9552917,1506,247.861908,1506,243.510025,1506,368.9530945,1506,179.8323822,
1504,319.6957092,1504,246.9367981,1504,243.196228,1504,368.675293,1504,179.3485718,
1502,320.5022583,1502,247.0310669,1502,242.1776276,1502,368.6380005,1502,179.2630615,
1500,320.632019,1500,247.3764648,1500,239.7545624,1500,368.5509338,1500,179.826004,
1498,320.4683838,1498,247.9254913,1498,239.8275909,1498,367.9503479,1498,180.2836609,
1496,319.6165771,1496,248.684433,1496,239.9697723,1496,367.3243103,1496,180.0753937,
1494,319.7251892,1494,248.3689728,1494,241.0914459,1494,366.7347107,1494,179.800354,
1492,320.037323,1492,247.5916443,1492,243.0759735,1492,366.5489197,1492,178.8185272,
1490,320.4086914,1490,246.3377533,1490,242.7342224,1490,366.4194946,1490,178.3121643,
1488,321.2662048,1488,246.4650116,1488,241.5535278,1488,366.2791138,1488,178.1469421,
1486,321.2876587,1486,246.7187653,1486,239.0687256,1486,365.9580994,1486,178.5830383,
1484,321.2716675,1484,247.5619965,1484,239.1094971,1484,365.5741577,1484,179.050293,
1482,320.5587769,1482,248.3765869,1482,239.287323,1482,365.1671753,1482,178.9546356,
1480,320.425354,1480,248.1939087,1480,240.2904205,1480,364.4492493,1480,178.6032257,
1478,320.6491089,1478,247.6186218,1478,242.4081116,1478,364.4085999,1478,177.53479,
1476,320.9630127,1476,246.4628906,1476,242.1508789,1476,364.4193726,1476,176.9109039,
1474,321.7785034,1474,246.5456238,1474,241.3181763,1474,364.1786804,1474,176.74646,
1472,321.738678,1472,246.8460083,1472,238.7467804,1472,364.0763855,1472,176.9047546,
1470,321.4638672,1470,247.4217377,1470,238.4702148,1470,363.5302429,1470,177.3034515,
1468,320.7373657,1468,248.4411011,1468,238.7121735,1468,362.8216858,1468,177.2049255,
1466,320.6809387,1466,248.2070618,1466,239.593811,1466,362.2342529,1466,176.9172516,
1464,320.5809326,1464,247.5883942,1464,241.6452637,1464,361.769989,1464,175.9835052,
1462,320.8356018,1462,246.1517334,1462,241.2302551,1462,361.4705505,1462,175.2276306,
1460,321.6290588,1460,246.0079651,1460,240.4893188,1460,361.1839294,1460,175.0604248,
1458,321.4338684,1458,246.3322144,1458,238.0155334,1458,360.8116455,1458,175.1785889,
1456,321.2941284,1456,246.9279938,1456,237.4840088,1456,360.2298584,1456,175.8431854,
1454,320.2095337,1454,247.8785706,1454,237.6478424,1454,359.692627,1454,175.7006378,
1452,319.9379272,1452,247.6691895,1452,238.4576721,1452,358.9605408,1452,175.3437958,
1450,319.8356018,1450,247.1770935,1450,240.6891327,1450,358.5078125,1450,174.4547119,
1448,319.9391785,1448,245.8800964,1448,240.7080383,1448,358.4944153,1448,173.5823059,
1446,320.4868774,1446,245.5644073,1446,240.2003326,1446,358.2116089,1446,173.3530579,
1444,320.5684814,1444,245.6869354,1444,237.9742584,1444,358.2846375,1444,173.3236694,
1442,319.8683167,1442,246.1326599,1442,237.3295746,1442,357.902771,1442,173.9240265,
1440,318.7564697,1440,247.2076111,1440,237.6339264,1440,357.0814209,1440,173.5045013,
1438,318.465271,1438,246.7422791,1438,238.2472992,1438,356.2219543,1438,173.2215118,
1436,318.3244934,1436,246.1895294,1436,240.4836884,1436,355.696991,1436,172.4167938,
1434,318.4909973,1434,244.6277618,1434,240.3283386,1434,355.4724731,1434,171.4533081,
1432,319.1687012,1432,243.8421021,1432,239.7187958,1432,354.7898254,1432,171.1538086,
1430,319.2117615,1430,243.9418488,1430,237.7008667,1430,354.8339844,1430,171.3027649,
1428,318.322937,1428,243.9788818,1428,236.6287231,1428,354.3059998,1428,171.861145,
1426,317.2931213,1426,244.8324432,1426,236.3223267,1426,353.0883484,1426,171.5295258,
1424,316.5279541,1424,244.4229584,1424,236.5569763,1424,352.0957947,1424,171.4090576,
1422,316.4938965,1422,243.9768372,1422,238.8202667,1422,351.4992371,1422,170.5821533,
1420,316.8464661,1420,242.5449066,1420,238.7521515,1420,351.5376892,1420,169.8462524,
1418,317.3058167,1418,241.8729248,1418,238.249176,1418,350.9291382,1418,169.709198,
1416,317.1783447,1416,242.2020721,1416,236.5346222,1416,351.5959778,1416,169.7202454,
1414,316.3913574,1414,241.8942719,1414,234.706543,1414,350.6943359,1414,170.352417,
1412,316.1658936,1412,243.2763062,1412,235.3209229,1412,350.1150818,1412,170.1876831,
1410,315.5061951,1410,243.6070709,1410,236.1717682,1410,350.1829834,1410,170.2530518,
1408,315.7876587,1408,243.7389069,1408,238.8311615,1408,350.5827026,1408,169.3820648,
1406,316.5406189,1406,243.0861969,1406,239.7245178,1406,351.4527893,1406,168.7563934,
1404,316.4439392,1404,242.6448517,1404,239.6517334,1404,352.1713257,1404,168.1825104,
1402,316.3735046,1402,242.1654968,1402,236.9739532,1402,351.855896,1402,167.9171143,
1400,315.8186951,1400,241.3073273,1400,234.5264893,1400,350.0003052,1400,168.4742279,
1398,315.9424438,1398,242.805603,1398,235.5743713,1398,349.5462036,1398,168.6493225,
1396,316.1803589,1396,243.651001,1396,236.4228973,1396,350.4815674,1396,168.899353,
1394,317.4253235,1394,244.9076385,1394,240.289444,1394,351.9986267,1394,168.9521027,
1392,317.4373779,1392,245.3923645,1392,242.408371,1392,354.7507019,1392,168.1668701,
1390,316.9804688,1390,244.6618805,1390,241.9753113,1390,355.1325989,1390,166.9958649,
1388,317.5901794,1388,244.3657227,1388,239.31987,1388,354.1966553,1388,166.6219635,
1386,317.6925049,1386,244.5331573,1386,237.7645569,1386,353.2268677,1386,167.5607605,
1384,318.7029724,1384,245.7399902,1384,237.9206848,1384,352.8796387,1384,168.0423279,
1382,319.8824463,1382,246.8985596,1382,239.1046448,1382,353.3379822,1382,168.9935913,
1380,320.7171021,1380,247.871048,1380,242.2433624,1380,354.9177856,1380,169.2425537,
1378,320.5958252,1378,248.0547943,1378,244.3365631,1378,356.7129517,1378,168.1938782,
1376,321.4853516,1376,247.5223083,1376,244.3013611,1376,357.3691711,1376,167.5646973,
1374,321.8167419,1374,247.6573486,1374,242.6641541,1374,357.513031,1374,167.428894,
1372,321.921936,1372,248.1088867,1372,241.0463867,1372,356.867218,1372,167.9031372,
1370,322.8805237,1370,250.2689819,1370,242.2507935,1370,357.307312,1370,168.37117,
1368,323.8383789,1368,252.2893219,1368,244.4025726,1368,359.0889893,1368,168.8246765,
1366,324.6798096,1366,253.7710724,1366,248.443985,1366,361.3307495,1366,168.6336975,
1364,324.2242432,1364,254.0332336,1364,250.6713104,1364,363.1469116,1364,166.8739014,
1362,324.6928406,1362,253.8312988,1362,251.1967621,1362,364.2279358,1362,165.670639,
1360,326.0837402,1360,254.9711456,1360,250.9441376,1360,365.3562927,1360,165.0468903,
1358,327.181366,1358,256.018219,1358,249.7841187,1358,366.370697,1358,165.5523376,
1356,327.3792419,1356,257.1498108,1356,249.6839752,1356,365.8864746,1356,165.7657318,
1354,326.51828,1354,257.2930298,1354,249.2709808,1354,364.5704651,1354,165.3770752,
1352,326.9039612,1352,256.5869446,1352,250.474472,1352,363.3293457,1352,165.0592041,
1350,328.0028076,1350,255.0534515,1350,250.7559967,1350,361.7112427,1350,164.3490143,
1348,328.7908325,1348,253.4045715,1348,249.1930695,1348,360.3321533,1348,164.6995392,
1346,328.8461304,1346,252.8596649,1346,246.7805176,1346,359.0951538,1346,165.0256653,
1344,328.8328552,1344,252.2920532,1344,243.5089874,1344,357.302948,1344,165.8954315,
1342,328.7229919,1342,252.6668854,1342,242.612381,1342,355.6877747,1342,166.8278351,
1340,327.6011963,1340,252.7721863,1340,242.2086792,1340,354.4968262,1340,167.0376892,
1338,327.3652039,1338,252.1828156,1338,242.9176636,1338,352.9341125,1338,166.9063416,
1336,327.3451233,1336,251.2052765,1336,243.4494019,1336,351.8784485,1336,166.0667114,
1334,327.596283,1334,250.052124,1334,242.4312592,1334,350.839386,1334,165.7802887,
1332,328.0262146,1332,249.8781738,1332,240.7232971,1332,349.7186584,1332,165.7550507,
1330,327.8417358,1330,249.6846619,1330,237.6634521,1330,348.5894165,1330,166.2824097,
1328,327.4562073,1328,249.9412842,1328,236.8147125,1328,347.2218018,1328,166.8293152,
1326,326.3321838,1326,249.9890594,1326,236.3468933,1326,345.4664612,1326,166.5940704,
1324,326.1495361,1324,249.1809082,1324,236.7124329,1324,343.8394775,1324,166.3809967,
1322,326.0627136,1322,248.2975769,1322,237.509079,1322,342.5713501,1322,165.5569916,
1320,326.5048828,1320,247.1244507,1320,236.7199707,1320,341.4961853,1320,165.2029572,
1318,327.1628418,1318,247.2833405,1318,235.7542572,1318,340.7714233,1318,165.1409149,
1316,327.196167,1316,247.7881927,1316,233.5930328,1316,340.545105,1316,165.6439972,
1314,326.7296448,1314,248.7618866,1314,233.7993164,1314,340.3606567,1314,166.125351,
1312,325.7684326,1312,249.825531,1312,234.5056305,1312,340.3927917,1312,165.75354,
1310,325.2937927,1310,249.8178406,1310,235.7431183,1310,340.1657715,1310,165.1938782,
1308,325.2111816,1308,249.4478149,1308,237.6207886,1308,340.1708679,1308,163.9086304,
1306,325.4818115,1306,248.4637299,1306,237.4710541,1306,339.8656006,1306,162.9423218,
1304,326.4588013,1304,248.3852692,1304,236.7556152,1304,339.5115051,1304,162.5273743,
1302,326.5447388,1302,248.482132,1302,234.2024384,1302,339.1081543,1302,162.6296997,
1300,326.3852234,1300,249.1170349,1300,233.8017426,1300,338.3482361,1300,163.1303711,
1298,325.6567993,1298,249.8784027,1298,233.8850098,1298,337.5558777,1298,162.8917542,
1296,325.4911804,1296,249.5167084,1296,234.5005798,1296,336.6412964,1296,162.5620575,
1294,325.8392334,1294,248.8990326,1294,236.1484222,1294,336.1878052,1294,161.7548523,
1292,326.1737671,1292,247.4181824,1292,235.9220581,1292,335.8108826,1292,161.2233429,
1290,327.0862427,1290,247.1260986,1290,235.2137756,1290,335.5158691,1290,161.162323,
1288,327.1842041,1288,247.219223,1288,232.8964539,1288,335.1057739,1288,161.470108,
1286,326.7258301,1286,247.7885895,1286,232.5702362,1286,334.5315857,1286,162.0030518,
1284,325.7442322,1284,248.7905731,1284,232.7549438,1284,334.1359253,1284,161.9412231,
1282,325.5445251,1282,248.7119751,1282,233.4095764,1282,333.6777039,1282,161.7793121,
1280,325.6975708,1280,248.3675537,1280,235.469223,1280,333.4804993,1280,161.0410767,
1278,325.8623047,1278,246.9065857,1278,235.3231201,1278,333.336731,1278,160.362793,
1276,326.6556702,1276,246.5013275,1276,234.8085632,1276,333.4399109,1276,160.2906952,
1274,326.4972534,1274,246.5761108,1274,232.7358246,1274,333.5741882,1274,160.5419617,
1272,326.0809021,1272,246.9952545,1272,232.1254272,1272,333.2938538,1272,161.1632233,
1270,325.2145691,1270,248.1312103,1270,232.4315033,1270,333.1482239,1270,161.1480713,
1268,324.7158203,1268,248.1138458,1268,233.0485535,1268,332.8457947,1268,160.9777985,
1266,324.7705994,1266,247.8089294,1266,235.1053009,1266,332.7919006,1266,160.4164886,
1264,324.9601746,1264,246.3619232,1264,234.9739532,1264,332.8439026,1264,159.6351929,
1262,325.8432617,1262,245.9270935,1262,234.4704437,1262,332.7986145,1262,159.5258179,
1260,325.7008972,1260,245.8731689,1260,232.2612,1260,333.0376587,1260,159.8035278,
1258,325.37854,1258,245.8808899,1258,231.4017487,1258,332.7449951,1258,160.4383392,
1256,324.3952637,1256,246.8199463,1256,231.3976746,1256,332.3506775,1256,160.4463043,
1254,323.7317505,1254,246.6779938,1254,231.596344,1254,331.8051147,1254,160.3644562,
1252,323.6231689,1252,246.4250336,1252,233.3847351,1252,331.6104736,1252,159.8068237,
1250,323.7546692,1250,245.1468506,1250,233.125351,1250,331.269928,1250,158.9842987,
1248,324.5316467,1248,244.5105591,1248,232.3136597,1248,331.0301208,1248,158.8469086,
1246,324.3633423,1246,244.2713928,1246,229.8937836,1246,330.7368469,1246,159.0213165,
1244,323.7434692,1244,244.0559845,1244,228.5005493,1244,330.1381226,1244,159.7541046,
1242,323.0156555,1242,244.6664581,1242,228.2510986,1242,329.2804565,1242,159.7540436,
1240,321.9072876,1240,244.3607635,1240,227.9153595,1240,328.2278137,1240,159.5983582,
1238,321.8638306,1238,243.7075806,1238,229.2545776,1238,327.3775024,1238,159.0494537,
1236,321.664032,1236,242.4390869,1236,228.8667145,1236,326.4124756,1236,158.0709381,
1234,321.79422,1234,241.4082947,1234,227.6078186,1234,325.5097961,1234,157.7988892,
1232,321.1654663,1232,240.7546539,1232,225.1769257,1232,324.5878601,1232,157.7236938,
1230,320.2308044,1230,240.1891174,1230,223.2554474,1230,323.3269348,1230,158.2121735,
1228,318.867981,1228,240.634201,1228,222.6197205,1228,322.1542358,1228,158.0205994,
1226,317.1927185,1226,239.9219208,1226,222.1453247,1226,320.6816101,1226,157.5107727,
1224,316.5093994,1224,239.1152649,1224,223.2323914,1224,319.3813477,1224,156.7518158,
1222,315.8929443,1222,237.6671753,1222,222.9694061,1222,318.4330139,1222,155.4940338,
1220,315.8729553,1220,236.6472931,1220,222.0003357,1220,317.5546265,1220,155.0258942,
1218,315.4478455,1218,236.1481476,1218,220.0884552,1218,317.0713806,1218,154.7293854,
1216,314.8381348,1216,235.8420105,1216,218.5170593,1216,316.2501221,1216,155.1765442,
1214,314.0049744,1214,236.6108246,1214,218.3259277,1214,315.6489258,1214,155.1547241,
1212,313.0800476,1212,236.6323242,1212,218.3249512,1212,314.8890381,1212,154.9324036,
1210,313.2852478,1210,236.401062,1210,219.8483429,1210,314.5636597,1210,154.5852356,
1208,313.6882935,1208,235.7688446,1208,220.3714905,1208,314.582428,1208,153.8479156,
1206,314.5759583,1206,235.2673035,1206,219.9949951,1206,314.7481079,1206,153.8980865,
1204,315.2749939,1204,235.5588989,1204,218.8040771,1204,314.8616028,1204,154.1768799,
1202,315.8231201,1202,235.8203583,1202,217.2418823,1202,314.9148254,1202,155.1791382,
1200,315.8022766,1200,236.8899841,1200,217.4335175,1200,314.7193298,1200,155.8710175,
1198,317.7359619,1198,239.4386292,1198,223.6064148,1198,319.9764709,1198,154.1242828,
1196,318.4019775,1196,239.7572937,1196,223.3983459,1196,320.4203186,1196,154.6043854,
1194,318.4478455,1194,240.2280884,1194,222.189621,1194,320.417511,1194,155.1819153,
1192,318.0525208,1192,240.9107666,1192,220.9660797,1192,320.4063721,1192,156.2010803,
1190,318.5394287,1190,242.2120056,1190,220.9629364,1190,320.3721619,1190,156.6170044,
1188,318.8456116,1188,242.0866699,1188,221.3383026,1188,320.3762512,1188,156.7984772,
1186,319.5532837,1186,241.9371643,1186,223.0429382,1186,320.7893982,1186,156.5262756,
1184,320.6535034,1184,240.9824677,1184,223.578064,1184,320.9855652,1184,156.1677856,
1182,320.8591919,1182,241.1200714,1182,223.3538666,1182,321.0632935,1182,156.3269806,
1180,320.7696228,1180,241.5252228,1180,222.1730194,1180,321.0801697,1180,156.8422089,
1178,320.1622314,1178,241.9333649,1178,220.7391205,1178,321.0849915,1178,157.7958374,
1176,320.16922,1176,242.9177094,1176,220.8679504,1176,320.7913513,1176,158.042511,
1174,320.5,1174,242.7804413,1174,221.2266388,1174,320.9536133,1174,158.1548004,
1172,320.9743347,1172,242.5091553,1172,222.8045044,1172,321.162262,1172,157.9710999,
1170,321.8952026,1170,241.6128235,1170,223.6078949,1170,321.3279419,1170,157.4586334,
1168,321.9413147,1168,241.4704132,1168,223.3293762,1168,321.5091553,1168,157.6274261,
1166,322.0054626,1166,241.6686707,1166,222.20578,1166,321.4415588,1166,158.0840912,
1164,321.0990601,1164,241.9366302,1164,220.5730438,1164,321.4845886,1164,159.0886536,
1162,321.0484314,1162,243.0257111,1162,220.6374207,1162,321.3662415,1162,159.4132385,
1160,321.2319031,1160,243.0431366,1160,220.9528503,1160,321.5997314,1160,159.5479431,
1158,321.5463257,1158,242.8508453,1158,222.296875,1158,321.880249,1158,159.4610748,
1156,322.5953979,1156,242.1192627,1156,223.2197571,1156,322.2310791,1156,158.8314819,
1154,322.5670776,1154,241.7370758,1154,222.8694611,1154,322.5549011,1154,158.9715576,
1152,322.3486023,1152,242.007309,1152,221.6445007,1152,322.0776672,1152,159.3501129,
1150,321.8108215,1150,242.3237152,1150,219.971344,1150,322.2007141,1150,160.3463898,
1148,321.6152954,1148,243.3884125,1148,220.0047455,1148,322.1429749,1148,160.7406311,
1146,321.7567139,1146,243.4690247,1146,220.3048401,1146,322.3093262,1146,160.8966064,
1144,321.9986572,1144,243.5042114,1144,221.4067383,1144,322.5204163,1144,160.8122406,
1142,322.6412354,1142,242.8126373,1142,222.4355011,1142,322.5544739,1142,160.0822449,
1140,322.8687744,1140,242.310379,1140,222.1164246,1140,322.6389771,1140,160.2009735,
1138,322.6797485,1138,242.457077,1138,221.4199982,1138,322.4073486,1138,160.5124664,
1136,321.9608154,1136,242.5871582,1136,219.4765015,1136,322.3167114,1136,161.4770813,
1134,321.585144,1134,243.7644653,1134,219.7447052,1134,322.11026,1134,161.9230652,
1132,321.7301941,1132,244.3631134,1132,220.4833221,1132,322.585907,1132,162.0358582,
1130,321.7831421,1130,244.4694977,1130,221.5457458,1130,322.9231262,1130,161.9038849,
1128,322.4910889,1128,243.5680389,1128,223.0858765,1128,323.0686951,1128,161.1192169,
1126,322.3793945,1126,242.8222198,1126,223.2067871,1126,323.434906,1126,161.084137,
1124,322.1464539,1124,242.8831329,1124,222.5253754,1124,323.4370117,1124,161.2857666,
1122,321.677887,1122,243.1279907,1122,220.8521118,1122,323.4925842,1122,162.2083282,
1120,321.2312622,1120,244.1181183,1120,221.2469788,1120,323.4781189,1120,162.7264099,
1118,321.0831909,1118,244.2243805,1118,221.4354553,1118,323.6980896,1118,162.8272095,
1116,321.1664124,1116,243.9462433,1116,222.3670654,1116,324.0412598,1116,162.669342,
1114,321.7332458,1114,243.2277985,1114,224.1804199,1114,324.2167053,1114,162.0470581,
1112,321.6747131,1112,241.9992981,1112,223.7478943,1112,324.6263123,1112,162.0945892,
1110,321.5772705,1110,241.9062805,1110,223.0374298,1110,324.4964905,1110,162.4003448,
1108,321.0767517,1108,242.0153351,1108,221.2022095,1108,324.4584656,1108,163.2865906,
1106,320.1101685,1106,242.9373474,1106,220.9310303,1106,324.2901001,1106,163.8582001,
1104,320.2685852,1104,243.2008209,1104,221.0401306,1104,324.3627319,1104,164.0646057,
1102,320.3556213,1102,242.7485046,1102,221.8077698,1102,324.6702576,1102,164.0062408,
1100,320.7979431,1100,241.9325104,1100,223.5469818,1100,324.8412476,1100,163.3986969,
1098,320.8270874,1098,240.885849,1098,223.271698,1098,325.1955261,1098,163.3829193,
1096,320.6524658,1096,240.9831696,1096,222.737381,1096,325.2675171,1096,163.5724945,
1094,320.1036987,1094,241.0029907,1094,220.8574219,1094,325.2113037,1094,164.3946381,
1092,319.2765808,1092,241.6565247,1092,220.5795593,1092,324.9527283,1092,164.9429016,
1090,319.2244568,1090,242.0718231,1090,220.8266296,1090,325.0097046,1090,165.131897,
1088,319.2528381,1088,241.8301086,1088,221.4510956,1088,325.2253113,1088,165.1039734,
1086,319.7856445,1086,240.8633881,1086,223.3983459,1086,325.4407959,1086,164.41362,
1084,320.0036011,1084,239.736908,1084,223.3446045,1084,325.6992188,1084,164.2661133,
1082,319.7582397,1082,239.838501,1082,222.8521118,1082,325.8036499,1082,164.4935913,
1080,319.1255493,1080,239.7776337,1080,220.9799805,1080,325.6834412,1080,165.2767944,
1078,318.3446045,1078,240.114502,1078,220.46492,1078,325.6723328,1078,165.84552,
1076,318.3055115,1076,240.4278717,1076,220.6554871,1076,325.5837402,1076,165.9904938,
1074,318.3173523,1074,239.9072418,1074,221.1284943,1074,325.6154785,1074,166.0616608,
1072,318.7095642,1072,239.2505646,1072,222.9226379,1072,325.7798767,1072,165.4034271,
1070,319.0278015,1070,238.1592255,1070,222.7767181,1070,326.0357971,1070,165.1495972,
1068,318.7831726,1068,237.8305969,1068,222.3736115,1068,326.086792,1068,165.2720337,
1066,318.193512,1066,237.6611023,1066,220.4521179,1066,325.9717712,1066,165.9909515,
1064,317.2075806,1064,238.0134888,1064,219.5939331,1064,325.8930054,1064,166.7652588,
1062,317.1708679,1062,238.4405823,1062,219.675354,1062,325.8763428,1062,166.7933502,
1060,316.9331055,1060,237.8594208,1060,220.0186005,1060,326.0892029,1060,166.7657928,
1058,317.3589783,1058,237.1473083,1058,221.7704315,1058,326.1386719,1058,166.2697601,
1056,317.7451477,1056,235.9372406,1056,221.7978668,1056,326.5139465,1056,165.9389801,
1054,317.4646912,1054,235.5635681,1054,221.2227631,1054,326.6625061,1054,166.095047,
1052,316.7702332,1052,235.2738342,1052,219.4881897,1052,326.5267944,1052,166.6095123,
1050,315.7689209,1050,235.6327972,1050,218.410614,1050,326.4340515,1050,167.4161987,
1048,315.5374146,1048,236.0891113,1048,218.3792114,1048,326.2700195,1048,167.506485,
1046,315.5148926,1046,235.6240234,1046,218.5739441,1046,326.3543701,1046,167.4994659,
1044,315.6844788,1044,234.8365326,1044,220.2708282,1044,326.5339355,1044,167.042099,
1042,316.2416382,1042,233.5539856,1042,220.297821,1042,326.8854065,1042,166.6019897,
1040,315.7790527,1040,233.1687012,1040,219.7504272,1040,327.1053162,1040,166.7734985,
1038,315.1529846,1038,232.9772644,1038,217.9242401,1038,326.9253235,1038,167.1971283,
1036,314.1385498,1036,233.2390594,1036,216.8029785,1036,326.7412109,1036,168.0825806,
1034,313.9179993,1034,233.9399872,1034,216.7058716,1034,326.523407,1034,168.1768799,
1032,313.8680725,1032,233.5201569,1032,216.9755859,1032,326.7837219,1032,168.2515869,
1030,313.9665222,1030,233.0385895,1030,218.7354126,1030,326.9476013,1030,167.7940826,
1028,314.4224548,1028,231.7048798,1028,218.9950867,1028,327.2161865,1028,167.3198853,
1026,314.0495911,1026,231.2559357,1026,218.6607056,1026,327.459259,1026,167.4146729,
1024,313.6095886,1024,231.1645966,1024,217.0458069,1024,327.3240967,1024,167.875,
1022,312.405365,1022,231.2513885,1022,215.7991638,1022,327.1827087,1022,168.7330322,
1020,311.9988403,1020,231.7913971,1020,215.8562927,1020,326.625824,1020,168.890625,
1018,311.9295959,1018,231.2658081,1018,216.1787262,1018,326.7386475,1018,168.8405762,
1016,312.0845947,1016,230.6860504,1016,217.7368164,1016,326.801178,1016,168.4410706,
1014,312.4904785,1014,229.5233002,1014,218.1496429,1014,326.9258118,1014,167.8609772,
1012,311.9497681,1012,229.0547638,1012,217.818573,1012,326.9704285,1012,167.9651031,
1010,311.3886414,1010,228.9279938,1010,216.3900146,1010,326.6401672,1010,168.3025665,
1008,310.3415222,1008,228.7375641,1008,214.793045,1008,326.4969482,1008,169.1209564,
1006,309.9740601,1006,229.366684,1006,214.8161926,1006,326.0488892,1006,169.3039703,
1004,309.7241821,1004,229.1609802,1004,214.9492493,1004,326.0630493,1004,169.3060608,
1002,309.675293,1002,228.6177826,1002,216.2303009,1002,326.2504578,1002,168.845047,
1000,310.3555298,1000,227.283905,1000,217.0100403,1000,326.4257507,1000,168.1507874,
998,309.909668,998,226.8789825,998,216.7542419,998,326.5689087,998,168.1432648,
996,309.5029602,996,226.9447784,996,215.5853271,996,326.5241089,996,168.3950958,
994,308.4408264,994,227.0188751,994,214.0603027,994,326.5559998,994,169.2226105,
992,308.0067444,992,227.7041016,992,214.1839752,992,326.281311,992,169.2450867,
990,307.8011475,990,227.4030457,990,214.5949554,990,326.5042419,990,169.1256256,
988,308.0095825,988,226.9805603,988,215.8196259,988,326.6433411,988,168.7316895,
986,308.584198,986,225.964325,986,216.7805634,986,326.8088989,986,167.7973328,
984,308.2746277,984,225.2663422,984,216.2663727,984,327.1502075,984,167.7032166,
982,307.8393555,982,225.1431274,982,215.0709381,982,326.734436,982,167.8943634,
980,306.8522644,980,224.8596649,980,212.9605713,980,326.3559265,980,168.7248535,
978,306.3019104,978,225.429657,978,212.6647949,978,325.7273254,978,168.8710022,
976,306.2773743,976,225.1883087,976,212.6084137,976,325.5533752,976,168.7837067,
974,306.1063232,974,224.6062012,974,213.3010406,974,325.2835693,974,168.5321045,
972,306.6617432,972,223.2302856,972,214.1734161,972,325.1446228,972,167.7532959,
970,306.3609009,970,222.2368774,970,213.4091797,970,324.9597473,970,167.6395569,
968,305.7321777,968,222.006012,968,211.9813232,968,324.3679199,968,167.8309784,
966,304.8605347,966,221.5980988,966,209.7333221,966,323.6120911,966,168.7476349,
964,304.0783691,964,221.8931885,964,209.2879028,964,322.7311401,964,169.0450745,
962,303.8989563,962,221.5630798,962,209.2497101,962,322.4068298,962,169.1324158,
960,303.8230896,960,220.9634552,960,210.1133118,960,322.2068176,960,168.9539795,
958,304.0886536,958,219.9763947,958,211.2951813,958,322.1549377,958,168.1394196,
956,303.8621216,956,219.0556946,956,210.8361664,956,322.3121948,956,167.9920349,
954,303.6192627,954,218.7487335,954,209.7497406,954,321.9407959,954,167.9914093,
952,302.5782166,952,218.566864,952,207.8518219,952,321.3305969,952,168.7767334,
950,301.8996582,950,219.135788,950,207.5351715,950,320.7135925,950,169.1290741,
948,301.6304626,948,219.0562439,948,207.4802094,948,320.4265137,948,168.9716034,
946,301.691925,946,218.4351196,946,208.1124115,946,320.2929688,946,168.6563263,
944,301.9228821,944,217.2759247,944,209.2872162,944,319.784729,944,167.5713348,
942,301.5460205,942,216.3353271,942,208.6890411,942,319.5071106,942,167.2033997,
940,301.1341248,940,215.9219666,940,207.5114899,940,318.511261,940,167.1274719,
938,300.3288574,938,215.3799286,938,205.1837463,938,317.2676086,938,167.6790771,
936,299.5050354,936,215.6785889,936,204.5956116,936,315.9815674,936,168.0506744,
934,299.1520081,934,215.5818024,934,204.1980438,934,314.9077759,934,167.8581848,
932,299.0371094,932,214.9012604,932,204.3435059,932,314.2068481,932,167.4463196,
930,299.2280273,930,214.1346283,930,205.5021515,930,313.6323547,930,166.469223,
928,299.1089172,928,213.0213776,928,204.7136993,928,313.2508545,928,166.0229492,
926,298.3536987,926,212.6144104,926,203.5944672,926,312.2034912,926,165.8218994,
924,297.6542358,924,212.6365204,924,201.2240906,924,311.3543396,924,166.1726837,
922,296.8704834,922,212.9921875,922,200.3016205,922,310.2435303,922,166.3078461,
920,296.678833,920,212.8433685,920,199.9529266,920,309.234375,920,166.1895599,
918,296.7340088,918,212.5884247,918,200.1257019,918,308.6694336,918,165.7317047,
916,296.9307251,916,211.7864685,916,201.2839508,916,308.0565796,916,164.6178131,
914,297.1088562,914,210.8193207,914,200.5725403,914,307.6286926,914,163.985672,
912,296.7905884,912,210.7015076,912,199.8746185,912,306.5713501,912,163.7343445,
910,296.3109131,910,210.7067413,910,197.9685364,910,305.5265198,910,164.118576,
908,295.3728333,908,210.9834595,908,197.1556854,908,304.3771362,908,164.2167511,
906,295.2638855,906,211.3233643,906,196.9391174,906,303.1577148,906,163.8600311,
904,295.2178345,904,210.6983643,904,197.1004181,904,302.3171692,904,163.3556824,
902,295.4691772,902,210.1584167,902,198.5502777,902,301.2574463,902,162.1386414,
900,295.8381042,900,209.3112488,900,198.2236023,900,300.8114929,900,161.3921204,
898,295.5739441,898,209.193161,898,197.6131134,898,299.6004639,898,160.9369202,
896,295.2021179,896,209.0599976,896,195.9136963,896,298.7720337,896,161.212265,
894,294.2012634,894,209.3375702,894,195.1611023,894,297.3552551,894,161.1016083,
892,294.0325623,892,209.379364,892,195.2744904,892,295.883606,892,160.6049957,
890,294.0512085,890,209.3158722,890,195.4913788,890,295.4234009,890,159.7780762,
888,294.4972839,888,208.8145752,888,197.1730347,888,294.1663208,888,158.4947968,
886,294.9189758,886,207.7310486,886,197.2156219,886,293.4901123,886,157.3921204,
884,294.7807922,884,207.7068634,884,196.837616,884,292.7661438,884,156.6509552,
882,294.2928467,882,207.7601624,882,195.105957,882,291.6100159,882,156.4119415,
880,293.5652466,880,207.7010345,880,194.5163574,880,290.2616882,880,156.1256256,
878,293.5982361,878,208.311203,878,194.6687775,878,289.1411438,878,155.2572784,
876,293.4777527,876,208.0643921,876,194.8509827,876,288.7897949,876,154.2029877,
874,294.135437,874,208.0440826,874,196.5460358,874,287.6177673,874,152.5074768,
872,294.6418762,872,207.4222565,872,196.6511078,872,287.1327209,872,151.0738831,
870,294.6354675,870,207.2942963,870,196.5149231,870,286.5828857,870,150.0935059,
868,294.5623779,868,207.3809814,868,194.9905548,868,285.70224,868,149.2307892,
866,293.7311096,866,207.8172455,866,194.2302704,866,284.9421387,866,148.5675659,
864,293.9217224,864,208.6022186,864,194.7741699,864,283.7279663,864,147.3222504,
862,294.4248657,862,208.3734741,862,195.0046692,862,283.1454163,862,145.7652893,
860,294.780304,860,208.3262177,860,196.1135101,860,282.0306396,860,144.2010193,
858,295.3844604,858,207.5008087,858,196.6746674,858,281.0141907,858,141.8982697,
856,295.0992432,856,207.9338531,856,196.1741638,856,280.7572021,856,140.479599,
854,295.3543701,854,208.0761261,854,194.8941498,854,279.294342,854,139.3826904,
852,294.6361389,852,208.7636719,852,194.1655579,852,278.0149231,852,138.6357117,
850,295.2171021,850,209.3852081,850,193.8729095,850,276.3456421,850,136.7977448,
848,295.3995972,848,209.9384766,848,193.8501129,848,274.3886108,848,135.1472321,
846,295.631134,846,209.6828918,846,194.5462646,846,272.6609802,846,132.6263123,
844,296.8716736,844,208.9215088,844,194.6786804,844,271.2078552,844,130.4173279,
842,296.7591553,842,208.9517059,842,193.9267731,842,268.6729736,842,128.3250732,
840,297.1985474,840,209.2159576,840,192.7686157,840,266.2431335,840,126.6065979,
838,295.7726746,838,209.1648407,838,191.298645,838,263.883728,838,125.394783,
836,296.7712708,836,210.010788,836,191.4751129,836,259.528717,836,123.1668854,
834,297.0795898,834,210.0780487,834,190.9980621,834,256.5294495,834,121.1205139,
832,297.4483643,832,209.0980225,832,192.0899048,832,252.6133118,832,118.6606293,
830,297.9450073,830,208.8534546,830,192.2996979,830,249.3031464,830,115.7464142,
828,297.7831116,828,207.7614136,828,192.8092041,828,246.6153564,828,113.2726288,
826,298.6274109,826,207.371521,826,192.3863678,826,243.6871338,826,110.9962311,
824,296.6625671,824,206.9524841,824,191.3079071,824,240.954834,824,109.6567612,
822,297.2175903,822,207.8702393,822,191.3319702,822,239.0744476,822,107.3234177,
820,298.0952148,820,206.5350952,820,191.2292786,820,235.8887177,820,105.2790985,
818,297.4793091,818,206.2373657,818,191.7405701,818,234.1667633,818,102.8637772,
816,297.9708252,816,204.32164,816,191.3628235,816,232.59552,816,99.93159485,
814,298.1647339,814,202.9019775,814,190.2268829,814,232.4825287,814,98.3236084,
812,298.1260986,812,201.5358276,812,188.6213074,812,230.9629517,812,96.18261719,
810,297.7859192,810,200.4880981,810,185.3430328,810,229.4193573,810,94.75995636,
808,296.104126,808,199.5947266,808,182.8896332,808,228.5690308,808,93.6510849,
806,297.7646484,806,198.4633026,806,181.214447,806,227.0510254,806,91.91533661,
804,296.8599548,804,197.0573425,804,180.0965881,804,225.3977509,804,90.27877808,
802,297.3157043,802,195.0534668,802,178.9891663,802,223.5100708,802,87.90750885,
800,297.0818787,800,193.2801361,800,176.5968018,800,221.795517,800,86.64723206,
799,305.6723633,799,137.8460693,799,108.1924057,799,155.9270782,799,97.48200226,
798,306.4555054,798,138.687439,798,107.4473038,798,154.0562439,798,96.48589325,
797,306.3216553,797,137.9619751,797,106.8875809,797,152.4567108,797,95.9441452,
796,306.2445984,796,137.1950073,796,106.8852768,796,152.27211,796,95.31360626,
795,306.1140442,795,137.0995941,795,106.6889648,795,152.7230377,795,94.81159973,
794,306.612854,794,137.3209076,794,106.1832047,794,153.599411,794,93.9352417,
793,305.751709,793,136.0823669,793,105.2191391,793,152.3639221,793,92.58827209,
792,306.1026306,792,136.304306,792,104.2817841,792,151.549942,792,91.72636414,
791,305.1952209,791,137.138504,791,103.4532166,791,149.7529144,791,90.92050171,
790,304.8959656,790,138.37146,790,102.7511444,790,148.1582947,790,90.37217712,
789,305.9208984,789,137.3207855,789,102.6009293,789,147.8543701,789,89.92720795,
788,305.5329285,788,134.8087769,788,102.3795471,788,147.8718719,788,89.53450012,
787,304.7446289,787,135.2801971,787,101.6851425,787,148.8024902,787,89.07146454,
786,304.6333923,786,136.8983002,786,101.086792,786,148.6048431,786,88.21329498,
785,304.3200378,785,137.3197784,785,99.71047974,785,148.0120544,785,87.13037872,
784,303.8050537,784,135.7648315,784,98.78135681,784,146.6823883,784,86.5319519,
783,303.4080505,783,135.4189148,783,98.41509247,783,145.378952,783,86.07089233,
782,304.2379761,782,136.7976379,782,98.16173553,782,144.7677307,782,85.89469147,
781,303.8684387,781,135.8739014,781,97.97663116,781,144.5051575,781,85.42985535,
780,303.2137756,780,134.8938446,780,97.18225098,780,144.7872467,780,85.10626221,
779,302.9778137,779,134.7890625,779,96.5025177,779,144.0968781,779,84.65810394,
778,302.9550781,778,135.8420258,778,95.41706085,778,142.8275146,778,83.52735138,
777,302.2137756,777,135.5166931,777,94.70799255,777,141.3520203,777,83.14189148,
776,302.4835815,776,134.3603668,776,94.11851501,776,139.6705017,776,82.68473053,
775,302.3636169,775,135.2201233,775,94.0723114,775,138.9242706,775,82.49097443,
774,301.9979858,774,136.1052704,774,93.59014893,774,138.1664581,774,82.36902618,
773,301.7315979,773,134.5564575,773,93.41612244,773,139.1054077,773,81.96678925,
772,301.8101196,772,132.420929,772,92.45825195,772,138.4957428,772,81.61806488,
771,301.2803955,771,133.2571564,771,91.64692688,771,137.2241974,771,80.77407837,
770,300.2748108,770,135.6727905,770,90.81373596,770,135.7218933,770,80.35171509,
769,300.1911316,769,136.025589,769,90.33811188,769,133.5669098,769,80.01174927,
768,300.6770935,768,133.5653534,768,90.33317566,768,132.2887573,768,79.89411163,
767,300.3994141,767,132.5659332,767,90.39365387,767,131.480011,767,79.94285583,
766,299.6582947,766,133.2558594,766,89.84724426,766,131.6124573,766,79.39768982,
765,299.1998291,765,132.6797638,765,89.30501556,765,130.7437897,765,79.1926651,
764,298.2788391,764,132.8075867,764,88.31161499,764,129.2005615,764,78.47831726,
763,297.7749939,763,133.5450439,763,87.39785767,763,127.3757935,763,78.02196503,
762,297.9330139,762,134.2910004,762,87.10094452,762,125.3718109,762,77.94211578,
761,297.5596924,761,132.4568329,761,87.00551605,761,124.5830688,761,77.82894897,
760,296.3458862,760,130.2109528,760,86.60215759,760,123.2827988,760,77.45052338,
759,296.6586914,759,131.1481323,759,86.05976868,759,123.7826691,759,77.40098572,
758,296.3644714,758,132.6787415,758,85.62581635,758,123.1305008,758,77.24365234,
757,294.8653564,757,131.4600677,757,84.73907471,757,122.1743851,757,76.52246094,
756,294.0610962,756,130.0695038,756,83.59156036,756,120.7409134,756,75.98362732,
755,293.8803101,755,130.4875946,755,83.19417572,755,118.7596436,755,75.67127228,
754,292.9291077,754,131.4280701,754,82.88611603,754,117.6618347,754,75.75185394,
753,293.276886,753,129.9066925,753,82.80069733,753,116.5077591,753,75.7355423,
752,291.598175,752,128.7287903,752,81.94738007,752,116.4751053,752,75.23796844,
751,291.1512756,751,128.5144501,751,81.4510498,751,115.4628067,751,74.90826416,
750,290.2849426,750,128.4777222,750,80.59901428,750,114.068306,750,74.30818939,
749,288.9596558,749,127.5594101,749,79.62424469,749,112.0760956,749,73.76900482,
748,287.9333191,748,128.4247742,748,78.98403931,748,109.5784149,748,73.45162964,
747,287.8512268,747,128.7026825,747,78.83214569,747,108.2578278,747,73.18196869,
746,286.9197388,746,126.2907257,746,78.4912262,746,107.1057816,746,73.08460999,
745,286.0961304,745,124.1239929,745,78.04400635,745,107.0493088,745,72.85364532,
744,284.9741516,744,124.770752,744,77.34798431,744,106.1526566,744,72.3993988,
743,283.7652588,743,126.101181,743,76.65986633,743,105.3098068,743,71.91727448,
742,282.7771301,742,125.1024399,742,75.69328308,742,104.3017502,742,71.19343567,
741,282.2073364,741,123.6349945,741,75.15760803,741,102.1983948,741,70.96213531,
740,281.2967834,740,123.9106445,740,74.76589203,740,101.2302246,740,70.59358215,
739,281.2126465,739,123.5091705,739,74.92949677,739,100.452713,739,70.73995972,
738,280.776062,738,122.2058258,738,74.72505188,738,100.2637405,738,70.53977966,
737,280.1387024,737,122.2492905,737,74.16647339,737,99.88513947,737,70.11379242,
736,279.2749023,736,122.0465698,736,73.74078369,736,99.0993576,736,69.72491455,
735,278.3728638,735,121.6100922,735,72.86430359,735,98.02069092,735,69.3536911,
734,277.8692017,734,121.6485367,734,72.80931091,734,96.41980743,734,69.1902771,
733,277.787384,733,122.6560211,733,72.4174881,733,95.56109619,733,69.01560211,
732,277.3341064,732,121.8001633,732,72.5749588,732,95.23363495,732,69.1218338,
731,277.3067627,731,119.4063339,731,72.50125122,731,95.45913696,731,69.03993988,
730,276.7426147,730,119.5412979,730,72.24067688,730,95.43251038,730,68.73021698,
729,275.8817139,729,120.766983,729,71.89073181,729,94.95541382,729,68.51522827,
728,275.0896606,728,120.9285126,728,71.10453796,728,94.43048859,728,67.93715668,
727,274.8361206,727,120.0156326,727,70.86470795,727,93.16244507,727,67.71663666,
726,274.9046326,726,119.9057617,726,70.71348572,726,92.47416687,726,67.76664734,
725,274.762207,725,119.2661057,725,71.04157257,725,92.12691498,725,67.81446075,
724,274.7476196,724,117.9703979,724,70.94223022,724,92.22606659,724,67.70315552,
723,274.0559692,723,118.2955246,723,70.63434601,723,92.40478516,723,67.42960358,
722,272.6863098,722,118.2031174,722,70.23332977,722,91.9371109,722,66.94634247,
721,272.2680664,721,117.4847946,721,69.61088562,721,91.49658966,721,66.54751587,
720,272.1804504,720,117.0547028,720,69.3228302,720,90.46328735,720,66.25648499,
719,271.0354919,719,117.9787979,719,69.22644043,719,89.5789032,719,66.17696381,
718,270.9737854,718,116.7307358,718,69.38392639,718,89.26610565,718,66.09942627,
717,270.3932495,717,114.6174088,717,69.31920624,717,89.10523987,717,65.93515015,
716,269.4565735,716,114.7114716,716,68.91674042,716,89.49926758,716,65.65272522,
715,269.333252,715,114.6314468,715,68.68322754,715,88.84381866,715,65.31349945,
714,267.9105225,714,114.5325394,714,67.89353943,714,88.28986359,714,64.67622375,
713,266.402832,713,114.1390533,713,67.6594162,713,87.06723022,713,64.3600235,
712,266.5306702,712,113.6958694,712,67.44904327,712,85.92165375,712,64.14867401,
711,265.6062927,711,112.5367126,711,67.64658356,711,85.59962463,711,64.09684753,
710,265.1130676,710,111.4463348,710,67.45617676,710,85.45700073,710,63.92761612,
709,264.506958,709,111.4110107,709,67.26041412,709,85.36133575,709,63.60204697,
708,263.4546509,708,110.0372467,708,66.83079529,708,84.89608002,708,63.27497864,
707,262.5375061,707,109.7345123,707,66.14962006,707,84.28890991,707,62.6665535,
706,261.7867126,706,110.2802277,706,65.85315704,706,83.24436951,706,62.35657501,
705,261.0506592,705,109.8822327,705,65.68349457,705,82.40777588,705,62.11772156,
704,260.7530212,704,108.0837097,704,65.95718384,704,81.96199799,704,62.0194664,
703,260.3343506,703,107.1551819,703,65.88748169,703,81.89389038,703,61.92333221,
702,259.9246826,702,107.259079,702,65.62439728,702,82.05776215,702,61.71529388,
701,259.4176025,701,106.5497665,701,65.63519287,701,81.82707214,701,61.42489243,
700,259.1494446,700,106.4021606,700,65.15436554,700,81.50506592,700,61.08047485,
699,258.5873718,699,106.4727325,699,64.97457886,699,80.92642212,699,60.85110855,
698,258.7617493,698,106.0283813,698,65.11798859,698,80.33431244,698,60.67251587,
697,258.8059998,697,106.0128098,697,65.65179443,697,80.15778351,697,60.94219589,
696,259.0207825,696,105.7570114,696,65.80414581,696,80.56808472,696,60.97452164,
695,259.6489563,695,104.370842,695,65.98004913,695,81.26718903,695,60.99304962,
694,259.5739746,694,104.5882263,694,66.16171265,694,81.54530334,694,60.87483597,
693,259.6469727,693,105.7142944,693,66.09919739,693,81.89929962,693,60.75909042,
692,260.3724976,692,105.9000702,692,66.08260345,692,81.63822937,692,60.6744957,
691,260.6167908,691,105.350914,691,66.44425964,691,81.27355194,691,60.85847473,
690,261.5148315,690,105.2603149,690,67.08388519,690,81.70794678,690,60.98394394,
689,262.1655579,689,104.8706512,689,67.71139526,689,82.14092255,689,61.31279373,
688,262.8304138,688,104.6938553,688,68.06791687,688,83.30861664,688,61.44146729,
687,263.0529785,687,104.8409348,687,68.32452393,687,83.66912079,687,61.36818695,
686,263.4772949,686,104.8757935,686,68.25667572,686,83.78359985,686,61.15748215,
685,263.4440613,685,104.9896851,685,68.33560944,685,83.64939117,685,61.195858,
684,263.9575806,684,105.5349197,684,68.8039856,684,83.01882935,684,61.17783356,
683,264.3865662,683,105.307045,683,69.40332031,683,83.04921722,683,61.33552933,
682,264.6750793,682,103.9471054,682,70.0164032,682,83.01833344,682,61.43357086,
681,264.656189,681,103.6865387,681,70.2745285,681,83.63837433,681,61.36330414,
680,264.5713196,680,103.7655716,680,70.46330261,680,83.36278534,680,61.27946472,
679,263.4699707,679,103.4833527,679,70.27188873,679,82.98604584,679,60.76870728,
678,262.8499756,678,103.4740448,678,70.11158752,678,82.19746399,678,60.59580994,
677,262.5023193,677,102.863945,677,70.27319336,677,81.02246857,677,60.21012497,
676,261.9526978,676,102.5458832,676,70.45605469,676,80.27158356,676,60.11894226,
675,261.0093994,675,101.5221252,675,70.89812469,675,79.70194244,675,59.93071365,
674,260.2272034,674,100.2272491,674,71.06324005,674,79.72997284,674,59.76115417,
673,259.3431396,673,99.666008,673,70.94419861,673,79.1809845,673,59.45439911,
672,258.5921326,672,99.75737762,672,70.80121613,672,78.5104599,672,58.99552536,
671,258.4105835,671,99.97492218,671,70.6902771,671,77.88210297,671,58.70183182,
670,258.9269714,670,99.5397644,670,71.09414673,670,76.83145142,670,58.71131516,
669,260.2829895,669,99.56246185,669,71.89120483,669,76.56510162,669,58.94945908,
668,261.5682983,668,99.65480804,668,72.94303131,668,76.57888031,668,59.31168747,
667,262.7005005,667,99.61301422,667,73.55274963,667,77.13411713,667,59.54337692,
666,263.7348022,666,99.64899445,666,74.16225433,666,77.33551788,666,59.74071121,
665,264.5920105,665,100.0981216,665,74.53384399,665,77.23139191,665,59.68328094,
664,265.410675,664,101.1980743,664,74.61393738,664,76.92205811,664,59.55916595,
663,265.9409485,663,101.3349533,663,75.12167358,663,76.08577728,663,59.65436554,
662,266.6331482,662,100.8674011,662,75.76694489,662,75.69385529,662,59.77038574,
661,267.1303711,661,100.6288528,661,76.57505035,661,75.510849,661,59.89816666,
660,267.2068787,660,100.2462845,660,76.88381958,660,75.79335022,660,59.75101089,
659,267.1160583,659,99.9754715,659,77.05995178,659,75.71622467,659,59.63185501,
658,266.3530884,658,99.76650238,658,77.00820923,658,75.2338028,658,59.30847549,
657,266.0737915,657,100.1508865,657,76.7778244,657,74.6599884,657,58.88957214,
656,265.3892517,656,100.1381607,656,76.75306702,656,73.44696808,656,58.7577095,
655,265.3649902,655,99.74480438,655,77.11112213,655,72.98127747,655,58.50115967,
654,264.9297485,654,98.90723419,654,77.68035889,654,72.58226776,654,58.55311203,
653,264.6775513,653,98.54116821,653,77.85904694,653,72.51402283,653,58.36487961,
652,264.0264893,652,98.37745667,652,77.86398315,652,72.38308716,652,57.97053146,
651,263.1196289,651,97.95618439,651,77.75011444,651,71.80870819,651,57.59693909,
650,262.0776978,650,98.27731323,650,77.3041153,650,71.25427246,650,57.07744217,
649,261.1239929,649,98.23629761,649,77.27632141,649,69.99452972,649,56.72339249,
648,260.7784424,648,97.73239136,648,77.43574524,648,69.29218292,648,56.43826675,
647,259.8705139,647,97.23458862,647,77.98039246,647,68.7738266,647,56.28394318,
646,259.1413574,646,96.42919922,646,78.12672424,646,68.6962738,646,55.94816971,
645,258.4665527,645,96.28472137,645,77.99746704,645,68.47431946,645,55.55615234,
644,257.1462097,644,96.27997589,644,77.62016296,644,67.80918121,644,55.07849884,
643,255.9461823,643,96.34385681,643,76.96567535,643,67.1268692,643,54.42457199,
642,255.0260773,642,96.29995728,642,76.65665436,642,65.93919373,642,53.98015213,
641,254.2738495,641,96.05660248,641,76.50815582,641,65.09832764,641,53.62758636,
640,253.5663605,640,95.55024719,640,76.86738586,640,64.55184937,640,53.38877487,
639,252.9220581,639,94.91706085,639,76.76184082,639,64.31994629,639,53.04547501,
638,252.0128479,638,94.87364197,638,76.46936798,638,64.0787735,638,52.62514877,
637,251.0611725,637,94.76135254,637,76.08579254,637,63.49998093,637,52.01856995,
636,250.0301056,636,95.10515594,636,75.30729675,636,62.80062103,636,51.42033005,
635,249.0704956,635,95.33890533,635,74.8536377,635,61.735672,635,50.92805099,
634,248.3536072,634,95.2032547,634,74.63431549,634,60.9306221,634,50.51455688,
633,247.9839783,633,94.81226349,633,74.8115387,633,60.35459518,633,50.31592941,
632,247.3196106,632,94.35984802,632,74.71440125,632,60.15853119,632,49.87210464,
631,246.3830414,631,94.55379486,631,74.35308838,631,60.08028412,631,49.38529587,
630,245.5825806,630,94.39160919,630,74.01959229,630,59.50718689,630,48.85931778,
629,244.5837097,629,95.00060272,629,73.177948,629,58.99419022,629,48.15623474,
628,243.7591858,628,95.27598572,628,72.72980499,628,58.12185287,628,47.61228561,
627,243.2585754,627,95.29392242,627,72.51875305,627,57.48709488,627,47.2140274,
626,242.8791046,626,94.98069,626,72.65653229,626,57.11098862,626,46.92219925,
625,242.3777161,625,94.43257141,625,72.37911987,625,57.01385117,625,46.4881897,
624,241.7296906,624,94.72754669,624,71.84406281,624,57.16376877,624,45.95307159,
623,240.9360199,623,94.72318268,623,71.22597504,623,56.82872391,623,45.38790131,
622,239.7504272,622,95.15283966,622,70.10477448,622,56.48696518,622,44.63931656,
621,238.9653473,621,95.65752411,621,69.24357605,621,55.83955002,621,44.08823013,
620,238.5274658,620,95.46614075,620,68.52143097,620,55.26784134,620,43.54694748,
619,237.833786,619,95.33669281,619,68.09693146,619,55.05505371,619,43.19063568,
618,237.1334839,618,94.94921875,618,67.58063507,618,55.03468323,618,42.66151047,
617,236.2797241,617,94.94864655,617,66.73983002,617,55.151577,617,42.07476425,
616,235.0958405,616,94.72953033,616,65.95970917,616,54.91423035,616,41.50453568,
615,234.2149963,615,95.13104248,615,64.8130188,615,54.58575439,615,40.73686981,
614,233.2138062,614,95.29618073,614,63.97301102,614,54.03144836,614,40.10949707,
613,232.3758545,613,95.05834961,613,63.28800201,613,53.36360168,613,39.59564972,
612,231.8871765,612,95.00004578,612,63.03020859,612,53.17060471,612,39.10881042,
611,231.0717773,611,94.42497253,611,62.70559311,611,53.12034607,611,38.72325516,
610,230.3439331,610,94.05043793,610,62.09384155,610,53.28757095,610,38.11513901,
609,229.6951599,609,93.93177795,609,61.5295105,609,53.06098557,609,37.6082077,
608,228.4228516,608,94.56930542,608,60.68930054,608,52.76755142,608,36.88671112,
607,227.5006104,607,94.6390686,607,60.10570526,607,52.33531189,607,36.37524033,
606,227.0907898,606,94.26873016,606,59.68682098,606,51.76238251,606,35.95235825,
605,226.7480621,605,94.5701828,605,59.5280838,605,51.62991333,605,35.6280365,
604,226.4933319,604,93.9752121,604,59.55770111,604,51.69693756,604,35.24715042,
603,226.3821411,603,93.79380035,603,59.18893051,603,52.14972687,603,34.84928131,
602,226.0731049,602,94.09934235,602,58.86001587,602,52.1100769,602,34.5088501,
601,225.5280914,601,94.66913605,601,58.28820419,601,52.18533707,601,34.02294922,
600,225.5227509,600,95.03478241,600,57.91920471,600,52.06564713,600,33.66290283,
599,225.3327179,599,95.39683533,599,57.76325989,599,51.68191147,599,33.31380081,
598,225.7010956,598,95.36802673,598,57.76428986,598,51.85303497,598,33.14535141,
597,225.990921,597,95.04632568,597,57.90435791,597,52.17900085,597,32.98106766,
596,226.0915222,596,95.12088013,596,57.73543167,596,52.83483887,596,32.73009491,
595,226.3690491,595,95.44815063,595,57.51042175,595,53.24043655,595,32.48292542,
594,226.2994232,594,96.09746552,594,56.98197937,594,53.51750183,594,32.15936279,
593,226.2721252,593,96.98340607,593,56.54649734,593,53.7013588,593,31.92872047,
592,226.7550201,592,97.24328613,592,56.47639465,592,53.66402435,592,31.75198746,
591,227.4284668,591,97.64012909,591,56.47269058,591,54.05310822,591,31.63467407,
590,227.7880859,590,97.49227905,590,56.58379745,590,54.5377388,590,31.58884621,
589,228.206131,589,97.28618622,589,56.31762695,589,55.61115646,589,31.44571114,
588,228.2306671,588,97.69595337,588,55.9772377,588,56.16238022,588,31.18878937,
587,228.1529846,587,98.07714081,587,55.39351654,587,56.49935532,587,30.8866291,
586,227.8953552,586,98.44028473,586,54.79824448,586,56.7644577,586,30.61578941,
585,227.5144043,585,98.52010345,585,54.46571732,585,56.61292648,585,30.38651085,
584,226.9901276,584,98.36167145,584,54.06238556,584,56.81999207,584,30.23843193,
583,226.9060059,583,97.60074615,583,53.83808136,583,57.0832901,583,30.07508469,
582,226.3236084,582,97.2492981,582,53.44737244,582,57.80574036,582,29.82448959,
581,225.365448,581,96.9879837,581,52.77251053,581,58.14964676,581,29.53771973,
580,224.5152435,580,96.61624146,580,52.04903412,580,58.24663162,580,29.19175911,
579,223.8187103,579,96.81806946,579,51.30263519,579,58.29920197,579,28.83780861,
578,222.9581146,578,96.52155304,578,50.78063202,578,57.89103699,578,28.65957069,
577,222.5115509,577,95.93817902,577,50.37500763,577,58.06028748,577,28.45351982,
576,221.8781738,576,95.31371307,576,50.29031754,576,58.12427521,576,28.38807106,
575,221.5068359,575,94.62038422,575,49.81522751,575,58.82980347,575,28.22005081,
574,221.0087738,574,94.35346985,574,49.45143127,574,59.17377472,574,28.06556511,
573,220.7446594,573,94.24057007,573,48.93536377,573,59.27864456,573,27.92011452,
572,220.2866364,572,94.37566376,572,48.33051682,572,59.57223129,572,27.71615982,
571,220.4098206,571,94.37815094,571,48.04697418,571,59.2177887,571,27.60717773,
570,220.730896,570,94.09599304,570,47.94940186,570,59.41163254,570,27.6841259,
569,222.3515015,569,94.68836212,569,47.85586548,569,60.67329788,569,27.75682831,
568,222.8826599,568,94.75801849,568,47.68619156,568,60.50701141,568,27.79815865,
567,223.4125366,567,94.72158813,567,47.52692413,567,60.8333168,567,27.82198524,
566,224.335434,566,94.74918365,566,47.68013382,566,61.19221497,566,28.03874588,
565,225.5574493,565,94.44728851,565,47.79091644,565,62.02205276,565,28.21294022,
564,226.7535248,564,94.67657471,564,47.66435623,564,62.7716713,564,28.31463242,
563,227.5637665,563,95.27337646,563,47.61525345,563,63.17978668,563,28.45461082,
562,228.7961731,562,95.96766663,562,47.31179047,562,63.57714462,562,28.51939583,
561,229.8734131,561,96.79795837,561,47.31220245,561,63.57235718,561,28.65032768,
560,231.5022736,560,97.25730133,560,47.39215088,560,64.10860443,560,28.84313965,
559,233.2617798,559,97.57666016,559,47.71967697,559,64.71825409,559,29.19808578,
558,234.9419861,558,97.59195709,558,48.03668976,558,65.78336334,558,29.50782776,
557,236.6436768,557,97.94727325,557,48.01325989,557,66.85477448,557,29.76023483,
556,238.1278534,556,98.65653229,556,48.14809799,556,67.65649414,556,29.9965229,
555,239.8866882,555,99.68909454,555,47.96233368,555,68.22760773,555,30.1505661,
554,241.6054535,554,100.5121002,554,48.01944351,554,68.37210083,554,30.40728188,
553,243.5566406,553,101.1691895,553,48.17947006,553,68.96421051,553,30.64280701,
552,245.4166412,552,101.9474716,552,48.65485001,552,69.79995728,552,31.04833412,
551,247.2154083,551,101.8221893,551,48.96255875,551,70.86943054,551,31.43011284,
550,248.8979797,550,102.5273209,550,49.17357254,550,72.04619598,550,31.69304085,
549,250.5471497,549,102.992012,549,49.22092819,549,72.75339508,549,31.87350273,
548,251.941391,548,104.1192322,548,49.0545845,548,73.31635284,548,32.06234741,
547,253.375412,547,105.0213928,547,49.12188721,547,73.45211792,547,32.26823425,
546,254.6230316,546,105.3991776,546,49.26248169,546,73.79683685,546,32.59679794,
545,255.9871216,545,105.7907257,545,49.49852371,545,74.32926941,545,32.826931,
544,257.0619202,544,105.0516815,544,49.6710701,544,74.77163696,544,33.04341888,
543,258.7853088,543,105.4586563,543,49.72076797,543,75.80625153,543,33.241539,
542,260.8630981,542,105.9355621,542,49.84606171,542,76.39501953,542,33.57898712,
541,261.9293823,541,107.4150467,541,49.79908371,541,77.0568924,541,33.72219467,
540,263.0846558,540,108.4309082,540,49.96737671,540,77.10017395,540,33.92344666,
539,264.6468506,539,108.7241669,539,50.0742569,539,77.43959045,539,34.17387009,
538,266.2722473,538,109.3407059,538,50.5146904,538,78.21627045,538,34.55516052,
537,267.9638367,537,109.3288879,537,51.03842163,537,79.08735657,537,34.90758896,
536,269.2487183,536,109.5847244,536,51.13495636,536,80.22587585,536,35.17272568,
535,270.3385925,535,109.9276428,535,51.2430954,535,80.87854767,535,35.35429764,
534,270.9506836,534,110.634407,534,51.13585663,534,81.25629425,534,35.44657135,
533,272.0755005,533,111.6281967,533,51.09017944,533,81.27798462,533,35.56030273,
532,273.0515747,532,112.0268555,532,51.36380005,532,81.28892517,532,35.75652695,
531,274.4132385,531,112.3103409,531,51.5506134,531,81.7014389,531,36.0555191,
530,275.4602051,530,112.303688,530,51.97346115,530,82.54415131,530,36.35486603,
529,276.4337158,529,112.0995178,529,52.07711411,529,83.68002319,529,36.4879837,
528,277.3692322,528,112.5905609,528,52.14920807,528,84.04905701,528,36.61723328,
527,277.7195129,527,113.1951675,527,52.07499695,527,84.39250946,527,36.64093781,
526,278.2673645,526,114.0401001,526,51.91809464,526,84.31155396,526,36.76280212,
525,279.2003174,525,114.5403595,525,52.07637405,525,84.1807251,525,36.85534286,
524,280.1371155,524,114.5673141,524,52.29767609,524,84.60742188,524,37.03762054,
523,280.7559814,523,114.6277771,523,52.66616821,523,85.18297577,523,37.36518478,
522,281.6702271,522,114.3943787,522,52.81864929,522,86.20721436,522,37.42954636,
521,282.5940857,521,114.5797272,521,52.79117966,521,86.60681152,521,37.5099678,
520,282.5900879,520,115.3996201,520,52.68297958,520,86.73377228,520,37.52251434,
519,282.6553345,519,116.0669556,519,52.45126343,519,86.62467957,519,37.44019699,
518,282.9771118,518,116.2632599,518,52.54162979,518,86.21271515,518,37.51963043,
517,283.7154846,517,116.3683548,517,52.80346298,517,86.47154236,517,37.68820953,
516,284.8392334,516,116.2653427,516,53.25756073,516,86.95442963,516,37.88909531,
515,285.2521362,515,115.8229828,515,53.2572403,515,87.90319824,515,37.93074417,
514,285.6204224,514,116.2561798,514,53.33113861,514,88.315979,514,37.95433807,
513,285.4904175,513,116.6253662,513,53.17447281,513,88.3996582,513,37.83039856,
512,285.5427551,512,117.3457031,512,52.87323761,512,88.16036224,512,37.8007164,
511,285.8153381,511,117.7047958,511,52.89124298,511,87.59377289,511,37.76325989,
510,286.705658,510,117.6073227,510,53.06451797,510,87.79627991,510,37.91389084,
509,286.7464905,509,117.2867508,509,53.50233459,509,88.05743408,509,37.99079132,
508,287.0115051,508,116.8526154,508,53.55514908,508,89.03614807,508,38.06505966,
507,287.5924072,507,117.0586853,507,53.59738541,507,89.25217438,507,37.98731232,
506,287.1390076,506,117.3570251,506,53.48314667,506,89.3715744,506,37.91672134,
505,287.1549683,505,118.0490341,505,53.11639786,505,89.21277618,505,37.79642105,
504,287.2342834,504,118.2775345,504,53.13799286,504,88.57887268,504,37.69681168,
503,287.6505737,503,118.1967621,503,53.27516937,503,88.46080017,503,37.74066544,
502,288.0246582,502,117.8147888,502,53.64874649,502,88.76843262,502,37.8073349,
501,288.3490906,501,117.2512283,501,53.74091721,501,89.61876678,501,37.82937241,
500,288.1055908,500,117.4059067,500,53.61710739,500,89.95079041,500,37.75253296,
499,287.6340942,499,117.4940338,499,53.53735733,499,89.96025085,499,37.5956955,
498,287.8997192,498,118.1425934,498,53.19763565,498,89.72423553,498,37.39451599,
497,287.5552368,497,118.2165298,497,53.19039917,497,88.90538025,497,37.3308754,
496,288.0844727,496,118.1551819,496,53.30936432,496,88.99531555,496,37.26498413,
495,288.3789368,495,117.8210602,495,53.64671326,495,89.10510254,495,37.33999252,
494,288.3100281,494,117.2195206,494,53.76634598,494,90.00227356,494,37.23820114,
493,288.3536987,493,116.9439697,493,53.74038696,493,90.25292206,493,37.20041656,
492,288.1767273,492,117.0748749,492,53.55958176,492,90.27066803,492,37.0430069,
491,287.9758606,491,117.7394714,491,53.23468399,491,90.09101105,491,36.7507019,
490,287.6076355,490,117.7217712,490,53.21949005,490,89.28153229,490,36.62590027,
489,288.1460876,489,117.6013336,489,53.22341919,489,89.08200073,489,36.55349731,
488,288.3487549,488,117.2322769,488,53.58541107,488,89.18197632,488,36.6043663,
487,287.9107361,487,116.4531937,487,53.62508392,487,89.95756531,487,36.55462646,
486,288.0101318,486,116.1817551,486,53.63026428,486,90.45987701,486,36.34600067,
485,287.7098389,485,116.1122437,485,53.50475311,485,90.29414368,485,36.14573669,
484,287.4981079,484,116.8842773,484,53.12840271,484,90.05562592,484,35.89091873,
483,287.4129028,483,116.7735214,483,53.0589447,483,89.30934143,483,35.66660309,
482,287.260376,482,116.6390991,482,53.03500748,482,89.06227112,482,35.59275055,
481,287.9064026,481,116.3303375,481,53.38243103,481,89.13426208,481,35.54780579,
480,287.5750732,480,115.461586,480,53.47124481,480,89.80812073,480,35.3997879,
479,287.3892212,479,115.1730499,479,53.40602875,479,90.2302475,479,35.20914459,
478,287.0993652,478,115.0891037,478,53.21443558,478,89.95994568,478,35.03070068,
477,286.4197693,477,115.6206284,477,52.93808746,477,89.85313416,477,34.60129166,
476,286.5556641,476,115.7254944,476,52.74793625,476,89.08468628,476,34.38336182,
475,286.2197571,475,115.2876282,475,52.75933838,475,88.91251373,475,34.24710464,
474,286.2191772,474,115.2111511,474,53.10136795,474,88.89633179,474,34.12999344,
473,286.3463745,473,114.1520386,473,53.17998505,473,89.58686066,473,33.94726563,
472,286.4151306,472,113.4338989,472,53.12376022,472,90.05730438,472,33.76408005,
471,286.09375,471,112.6110764,471,53.00377655,471,89.91408539,471,33.51498413,
470,285.2377014,470,111.4862442,470,52.60520172,470,89.80187988,470,33.12395477,
469,285.3916016,469,109.8156357,469,52.46096802,469,88.96739197,469,32.78597641,
468,285.0519104,468,109.1854248,468,52.46866226,468,88.6014328,468,32.52302551,
467,285.0820923,467,108.7525024,467,52.73727036,467,88.60348511,467,32.40287399,
466,285.1509705,466,106.8833466,466,52.83726501,466,89.10515594,466,32.23796082,
465,284.747345,465,104.6385422,465,52.78540802,465,89.60575867,465,31.90293312,
464,284.2892151,464,102.6624222,464,52.6402359,464,89.59127045,464,31.60451889,
463,283.9176941,463,102.3871536,463,52.18145752,463,89.27192688,463,31.21260071,
462,283.4472351,462,101.8768082,462,51.93835449,462,88.5308609,462,30.85101509,
461,283.1438293,461,100.4279633,461,51.98104477,461,88.18431854,461,30.50452423,
460,283.3509827,460,99.29632568,460,52.16429138,460,88.1375885,460,30.30278778,
459,283.5109863,459,98.28318024,459,52.30574036,459,88.43772888,459,30.10264969,
458,283.2070007,458,97.97109985,458,52.19101715,458,88.93525696,458,29.7808857,
457,282.477417,457,97.5222168,457,52.14920807,457,88.80382538,457,29.41831589,
456,281.8092957,456,97.95970154,456,51.74139023,456,88.72392273,456,28.98927116,
455,281.4691162,455,99.33927155,455,51.52331543,455,87.91290283,455,28.58822632,
454,281.2104187,454,100.0787506,454,51.4928627,454,87.43464661,454,28.29194069,
453,281.0125732,453,100.5499039,453,51.61178589,453,87.38078308,453,28.03472519,
452,280.7894592,452,100.78125,452,51.85396576,452,87.56420898,452,27.73096848,
451,280.5736694,451,101.1913147,451,51.74844742,451,88.0952301,451,27.32744598,
450,279.9489136,450,101.9642792,450,51.5100174,450,87.97145844,450,26.94007111,
449,279.1552429,449,102.7703552,449,51.23522186,449,87.73401642,449,26.48987198,
448,278.5367432,448,103.7935257,448,50.95550537,448,87.15752411,448,25.97072792,
447,278.0123596,447,104.2374878,447,50.78075409,447,86.42719269,447,25.62520599,
446,278.0239868,446,104.4824829,446,50.98093796,446,86.41542816,446,25.29536819,
445,277.9079895,445,104.3942947,445,51.16137314,445,86.55390167,445,24.97334862,
444,277.6324158,444,104.2440872,444,51.03580856,444,87.24353027,444,24.57177353,
443,277.1351013,443,104.4708939,443,50.91674805,443,87.0644455,443,24.12361908,
442,276.4184875,442,104.9374466,442,50.59352112,442,86.75149536,442,23.62719917,
441,275.5227356,441,105.3991165,441,50.22348022,441,86.1700592,441,23.1095047,
440,275.1513367,440,105.4204712,440,50.10647202,440,85.51901245,440,22.70306206,
439,274.8725586,439,105.2626877,439,50.17692947,439,85.30545807,439,22.24225616,
438,274.5732422,438,104.6134567,438,50.51049423,438,85.35193634,438,21.90025902,
437,274.0680542,437,104.0394058,437,50.32307434,437,85.85247803,437,21.44986916,
436,273.4619751,436,104.0360718,436,50.2062912,436,85.76243591,436,21.02769661,
435,272.7161865,435,103.8860703,435,50.0487442,435,85.45315552,435,20.49836349,
434,272.2038879,434,104.2158813,434,49.6950264,434,84.87755585,434,19.98135185,
433,271.5650024,433,103.904274,433,49.62098312,433,84.15006256,433,19.56266975,
432,271.5882263,432,103.5663834,432,49.77774811,432,84.12241364,432,19.15808105,
431,271.868103,431,102.6888733,431,50.05519867,431,84.33973694,431,18.82801056,
430,271.5426331,430,101.754425,430,49.9793129,430,84.84590149,430,18.41621399,
429,270.9545593,429,100.8246994,429,49.93756866,429,84.95407104,429,17.94712257,
428,270.5767517,428,99.70057678,428,49.71223068,428,84.73755646,428,17.47375488,
427,269.8273926,427,97.78662872,427,49.36385345,427,84.28890991,427,17.0112915,
426,269.0941467,426,94.42120361,426,49.21957779,426,83.49882507,426,16.63040924,
425,268.6630859,425,90.4201889,425,49.3059082,425,83.36395264,425,16.32836533,
424,268.4078369,424,85.95598602,424,49.56487274,424,83.32332611,424,15.98481083,
423,268.1556702,423,82.27809143,423,49.50976181,423,84.06402588,423,15.68067265,
422,267.909729,422,79.96240234,422,49.40548325,422,84.04395294,422,15.33185577,
421,267.532135,421,79.00698853,421,49.23318481,421,83.89129639,421,15.01232338,
420,266.9096375,420,78.97254944,420,48.9956665,420,83.66864014,420,14.64489841,
419,266.8209839,419,78.94691467,419,48.99356842,419,83.11247253,419,14.34828186,
418,266.4387207,418,78.6672821,418,49.08455658,418,83.02797699,418,14.13696671,
417,266.5236511,417,78.35544586,417,49.41405487,417,83.07533264,417,13.99993324,
416,266.3411255,416,78.03569794,416,49.38122177,416,83.79167938,416,13.73340321,
415,265.8830261,415,77.77612305,415,49.40615845,415,83.90242767,415,13.55756378,
414,265.5302429,414,77.82919312,414,49.24004364,414,83.80013275,414,13.31283283,
413,264.9204712,413,78.16880035,413,48.8133812,413,83.39755249,413,12.98826218,
412,264.3952332,412,78.11136627,412,48.78069305,412,82.59112549,412,12.85255527,
411,263.7462463,411,77.72943878,411,48.72002411,411,82.28263092,411,12.66741562,
410,263.9980164,410,77.67177582,410,49.0417099,410,82.21796417,410,12.56837654,
409,263.491333,409,77.10650635,409,49.06006622,409,82.75712585,409,12.42791367,
408,262.6612549,408,76.99041748,408,48.97941589,408,82.85371399,408,12.27889252,
407,262.1998596,407,76.89752197,407,48.82342529,407,82.58957672,407,12.07485676,
406,262.0099792,406,77.22688293,406,48.45168304,406,82.1676178,406,11.87708855,
405,261.0585327,405,77.03086853,405,48.27946854,405,81.1453476,405,11.74861145,
404,260.8158569,404,76.83082581,404,48.25185394,404,80.82283783,404,11.64560318,
403,259.9820557,403,76.46569824,403,48.45476532,403,80.60262299,403,11.59051704,
402,259.1950989,402,75.79957581,402,48.42322159,402,80.98712921,402,11.46282196,
401,258.1951294,401,75.41408539,401,48.22270966,401,80.79144287,401,11.30612469,
400,257.1777649,400,75.37290192,400,47.99272919,400,80.43158722,400,11.1574564,

Hole,
Hole
Collection Time: 20/11/2023 2:54:27 PM
Operator Name  :
Scan Software Version: 4.10(464)
Parameter List :
Instrument                        Cary 5000
Instrument Version                1.12
Start (nm)                        2000.00
Stop (nm)                         400.00
X Mode                            Nanometers
Y Mode                            %T
Independent NIR                   On
Measurement Mode                  Auto
UV-Vis Scan Rate (nm/min)         600.000
UV-Vis Data Interval (nm)         1.00
UV-Vis Ave. Time (sec)            0.100
UV-Vis SBW (nm)                   2.000
NIR Scan Rate (nm/min)            1200.000
NIR Data Interval (nm)            2.00
NIR Ave. Time (sec)               0.100
NIR Energy                        3.00
Slit Height                       Full
Beam Mode                         Double
Signal-to-noise Mode              Off
UV Source                         On
Vis Source                        On
Third Source                      Off
Source Changeover (nm)            350.00
Detector Changeover (nm)          800.00
Grating Changeover (nm)           800.00
Baseline Correction               Off
Cycle Mode                        Off
Comments
Method Log     :
Method Name    :
Date/Time stamp: 20/11/2023 10:56:02 AM
Method Modifications:
X Start nm Changed: 20/11/2023 11:08:07 AM, Old: 800.00, New:1600.00
X Stop nm Changed: 20/11/2023 11:08:07 AM, Old: 200.00, New: 400.00
Y mode Changed: 20/11/2023 11:08:07 AM, Old:Abs, New:%T
Idpt Control Changed: 20/11/2023 11:08:07 AM, Old:0, New:1
NIR Scan Rate nm Changed: 20/11/2023 11:08:07 AM, Old:  600.000, New: 1200.000
NIR Interval nm Changed: 20/11/2023 11:08:07 AM, Old:     1.00, New:     2.00
Storage Changed: 20/11/2023 11:08:07 AM, Old:1, New:0
X Stop nm Changed: 20/11/2023 11:14:47 AM, Old: 400.00, New: 300.00
Saved as C:\users\Janek_Suffczynski\Leon_thiophosphates\20-11-2023.BSWSaved as C:\users\Janek_Suffczynski\Leon_thiophosphates\2023-11-20\d001_ZnO-Calibration.BSW
Opened C:\users\Janek_Suffczynski\Leon_thiophosphates\2023-11-20\d001_ZnO-Calibration.BSW
X Start nm Changed: 20/11/2023 12:23:22 PM, Old:1600.00, New:2000.00
X Stop nm Changed: 20/11/2023 12:23:22 PM, Old: 300.00, New: 400.00
End Method Modifications
<SBW (nm)> , 2.00
<Energy> , 239.88
<Slit height> , Full
<Current Wavelength> , 400.00

MnPS3,
MnPS3
Collection Time: 20/11/2023 2:57:29 PM
Operator Name  :
Scan Software Version: 4.10(464)
Parameter List :
Instrument                        Cary 5000
Instrument Version                1.12
Start (nm)                        2000.00
Stop (nm)                         400.00
X Mode                            Nanometers
Y Mode                            %T
Independent NIR                   On
Measurement Mode                  Auto
UV-Vis Scan Rate (nm/min)         600.000
UV-Vis Data Interval (nm)         1.00
UV-Vis Ave. Time (sec)            0.100
UV-Vis SBW (nm)                   2.000
NIR Scan Rate (nm/min)            1200.000
NIR Data Interval (nm)            2.00
NIR Ave. Time (sec)               0.100
NIR Energy                        3.00
Slit Height                       Full
Beam Mode                         Double
Signal-to-noise Mode              Off
UV Source                         On
Vis Source                        On
Third Source                      Off
Source Changeover (nm)            350.00
Detector Changeover (nm)          800.00
Grating Changeover (nm)           800.00
Baseline Correction               Off
Cycle Mode                        Off
Comments
Method Log     :
Method Name    :
Date/Time stamp: 20/11/2023 10:56:02 AM
Method Modifications:
X Start nm Changed: 20/11/2023 11:08:07 AM, Old: 800.00, New:1600.00
X Stop nm Changed: 20/11/2023 11:08:07 AM, Old: 200.00, New: 400.00
Y mode Changed: 20/11/2023 11:08:07 AM, Old:Abs, New:%T
Idpt Control Changed: 20/11/2023 11:08:07 AM, Old:0, New:1
NIR Scan Rate nm Changed: 20/11/2023 11:08:07 AM, Old:  600.000, New: 1200.000
NIR Interval nm Changed: 20/11/2023 11:08:07 AM, Old:     1.00, New:     2.00
Storage Changed: 20/11/2023 11:08:07 AM, Old:1, New:0
X Stop nm Changed: 20/11/2023 11:14:47 AM, Old: 400.00, New: 300.00
Saved as C:\users\Janek_Suffczynski\Leon_thiophosphates\20-11-2023.BSWSaved as C:\users\Janek_Suffczynski\Leon_thiophosphates\2023-11-20\d001_ZnO-Calibration.BSW
Opened C:\users\Janek_Suffczynski\Leon_thiophosphates\2023-11-20\d001_ZnO-Calibration.BSW
X Start nm Changed: 20/11/2023 12:23:22 PM, Old:1600.00, New:2000.00
X Stop nm Changed: 20/11/2023 12:23:22 PM, Old: 300.00, New: 400.00
End Method Modifications
<SBW (nm)> , 2.00
<Energy> , 380.19
<Slit height> , Full
<Current Wavelength> , 400.00

CrPS4,
CrPS4
Collection Time: 20/11/2023 3:00:22 PM
Operator Name  :
Scan Software Version: 4.10(464)
Parameter List :
Instrument                        Cary 5000
Instrument Version                1.12
Start (nm)                        2000.00
Stop (nm)                         400.00
X Mode                            Nanometers
Y Mode                            %T
Independent NIR                   On
Measurement Mode                  Auto
UV-Vis Scan Rate (nm/min)         600.000
UV-Vis Data Interval (nm)         1.00
UV-Vis Ave. Time (sec)            0.100
UV-Vis SBW (nm)                   2.000
NIR Scan Rate (nm/min)            1200.000
NIR Data Interval (nm)            2.00
NIR Ave. Time (sec)               0.100
NIR Energy                        3.00
Slit Height                       Full
Beam Mode                         Double
Signal-to-noise Mode              Off
UV Source                         On
Vis Source                        On
Third Source                      Off
Source Changeover (nm)            350.00
Detector Changeover (nm)          800.00
Grating Changeover (nm)           800.00
Baseline Correction               Off
Cycle Mode                        Off
Comments
Method Log     :
Method Name    :
Date/Time stamp: 20/11/2023 10:56:02 AM
Method Modifications:
X Start nm Changed: 20/11/2023 11:08:07 AM, Old: 800.00, New:1600.00
X Stop nm Changed: 20/11/2023 11:08:07 AM, Old: 200.00, New: 400.00
Y mode Changed: 20/11/2023 11:08:07 AM, Old:Abs, New:%T
Idpt Control Changed: 20/11/2023 11:08:07 AM, Old:0, New:1
NIR Scan Rate nm Changed: 20/11/2023 11:08:07 AM, Old:  600.000, New: 1200.000
NIR Interval nm Changed: 20/11/2023 11:08:07 AM, Old:     1.00, New:     2.00
Storage Changed: 20/11/2023 11:08:07 AM, Old:1, New:0
X Stop nm Changed: 20/11/2023 11:14:47 AM, Old: 400.00, New: 300.00
Saved as C:\users\Janek_Suffczynski\Leon_thiophosphates\20-11-2023.BSWSaved as C:\users\Janek_Suffczynski\Leon_thiophosphates\2023-11-20\d001_ZnO-Calibration.BSW
Opened C:\users\Janek_Suffczynski\Leon_thiophosphates\2023-11-20\d001_ZnO-Calibration.BSW
X Start nm Changed: 20/11/2023 12:23:22 PM, Old:1600.00, New:2000.00
X Stop nm Changed: 20/11/2023 12:23:22 PM, Old: 300.00, New: 400.00
End Method Modifications
<SBW (nm)> , 2.00
<Energy> , 380.19
<Slit height> , Full
<Current Wavelength> , 400.00

NiPS3,
NiPS3
Collection Time: 20/11/2023 3:03:29 PM
Operator Name  :
Scan Software Version: 4.10(464)
Parameter List :
Instrument                        Cary 5000
Instrument Version                1.12
Start (nm)                        2000.00
Stop (nm)                         400.00
X Mode                            Nanometers
Y Mode                            %T
Independent NIR                   On
Measurement Mode                  Auto
UV-Vis Scan Rate (nm/min)         600.000
UV-Vis Data Interval (nm)         1.00
UV-Vis Ave. Time (sec)            0.100
UV-Vis SBW (nm)                   2.000
NIR Scan Rate (nm/min)            1200.000
NIR Data Interval (nm)            2.00
NIR Ave. Time (sec)               0.100
NIR Energy                        3.00
Slit Height                       Full
Beam Mode                         Double
Signal-to-noise Mode              Off
UV Source                         On
Vis Source                        On
Third Source                      Off
Source Changeover (nm)            350.00
Detector Changeover (nm)          800.00
Grating Changeover (nm)           800.00
Baseline Correction               Off
Cycle Mode                        Off
Comments
Method Log     :
Method Name    :
Date/Time stamp: 20/11/2023 10:56:02 AM
Method Modifications:
X Start nm Changed: 20/11/2023 11:08:07 AM, Old: 800.00, New:1600.00
X Stop nm Changed: 20/11/2023 11:08:07 AM, Old: 200.00, New: 400.00
Y mode Changed: 20/11/2023 11:08:07 AM, Old:Abs, New:%T
Idpt Control Changed: 20/11/2023 11:08:07 AM, Old:0, New:1
NIR Scan Rate nm Changed: 20/11/2023 11:08:07 AM, Old:  600.000, New: 1200.000
NIR Interval nm Changed: 20/11/2023 11:08:07 AM, Old:     1.00, New:     2.00
Storage Changed: 20/11/2023 11:08:07 AM, Old:1, New:0
X Stop nm Changed: 20/11/2023 11:14:47 AM, Old: 400.00, New: 300.00
Saved as C:\users\Janek_Suffczynski\Leon_thiophosphates\20-11-2023.BSWSaved as C:\users\Janek_Suffczynski\Leon_thiophosphates\2023-11-20\d001_ZnO-Calibration.BSW
Opened C:\users\Janek_Suffczynski\Leon_thiophosphates\2023-11-20\d001_ZnO-Calibration.BSW
X Start nm Changed: 20/11/2023 12:23:22 PM, Old:1600.00, New:2000.00
X Stop nm Changed: 20/11/2023 12:23:22 PM, Old: 300.00, New: 400.00
End Method Modifications
<SBW (nm)> , 2.00
<Energy> , 380.19
<Slit height> , Full
<Current Wavelength> , 400.00

FePS3,
FePS3
Collection Time: 20/11/2023 3:06:12 PM
Operator Name  :
Scan Software Version: 4.10(464)
Parameter List :
Instrument                        Cary 5000
Instrument Version                1.12
Start (nm)                        2000.00
Stop (nm)                         400.00
X Mode                            Nanometers
Y Mode                            %T
Independent NIR                   On
Measurement Mode                  Auto
UV-Vis Scan Rate (nm/min)         600.000
UV-Vis Data Interval (nm)         1.00
UV-Vis Ave. Time (sec)            0.100
UV-Vis SBW (nm)                   2.000
NIR Scan Rate (nm/min)            1200.000
NIR Data Interval (nm)            2.00
NIR Ave. Time (sec)               0.100
NIR Energy                        3.00
Slit Height                       Full
Beam Mode                         Double
Signal-to-noise Mode              Off
UV Source                         On
Vis Source                        On
Third Source                      Off
Source Changeover (nm)            350.00
Detector Changeover (nm)          800.00
Grating Changeover (nm)           800.00
Baseline Correction               Off
Cycle Mode                        Off
Comments
Method Log     :
Method Name    :
Date/Time stamp: 20/11/2023 10:56:02 AM
Method Modifications:
X Start nm Changed: 20/11/2023 11:08:07 AM, Old: 800.00, New:1600.00
X Stop nm Changed: 20/11/2023 11:08:07 AM, Old: 200.00, New: 400.00
Y mode Changed: 20/11/2023 11:08:07 AM, Old:Abs, New:%T
Idpt Control Changed: 20/11/2023 11:08:07 AM, Old:0, New:1
NIR Scan Rate nm Changed: 20/11/2023 11:08:07 AM, Old:  600.000, New: 1200.000
NIR Interval nm Changed: 20/11/2023 11:08:07 AM, Old:     1.00, New:     2.00
Storage Changed: 20/11/2023 11:08:07 AM, Old:1, New:0
X Stop nm Changed: 20/11/2023 11:14:47 AM, Old: 400.00, New: 300.00
Saved as C:\users\Janek_Suffczynski\Leon_thiophosphates\20-11-2023.BSWSaved as C:\users\Janek_Suffczynski\Leon_thiophosphates\2023-11-20\d001_ZnO-Calibration.BSW
Opened C:\users\Janek_Suffczynski\Leon_thiophosphates\2023-11-20\d001_ZnO-Calibration.BSW
X Start nm Changed: 20/11/2023 12:23:22 PM, Old:1600.00, New:2000.00
X Stop nm Changed: 20/11/2023 12:23:22 PM, Old: 300.00, New: 400.00
End Method Modifications
<SBW (nm)> , 2.00
<Energy> , 380.19
<Slit height> , Full
<Current Wavelength> , 400.00

